2.766450
2.774497
2.775462
2.784796
2.795095
2.802176
2.812797
2.814406
2.808291
2.797992
2.788658
2.775462
2.767738
2.778037
2.790267
2.796704
2.799601
2.799601
2.804750
2.810866
2.820199
2.828567
2.836613
2.840476
2.838866
2.835326
2.832108
2.829533
2.843694
2.875557
2.910961
2.937674
2.953445
2.965675
2.974365
2.971146
2.962778
2.948939
2.940571
2.938961
2.937674
2.945720
2.963744
2.979836
2.995285
3.000756
2.997860
2.986273
2.964709
2.939927
2.922225
2.904202
2.888431
2.876845
2.875879
2.890684
2.905167
2.915788
2.909029
2.900340
2.880385
2.853671
2.831786
2.822774
2.808934
2.792198
2.776428
2.768703
2.766450
2.765163
2.763876
2.756795
2.748105
2.743599
2.750358
2.761945
2.767094
2.762588
2.762266
2.765163
2.777071
2.784796
2.786405
2.779646
2.773531
2.772566
2.779646
2.780934
2.779646
2.784796
2.788658
2.787692
2.792198
2.803141
2.819877
2.829533
2.843372
2.863971
2.881029
2.897121
2.921903
2.947651
2.966962
2.976940
2.981445
2.993998
3.026826
3.074138
3.137220
3.211889
3.298467
3.403711
3.524726
3.653144
3.779953
3.895818
3.971131
3.953107
3.816965
3.573326
3.275615
2.976296
2.724610
2.550490
2.479039
2.490304
2.530857
2.583962
2.628699
2.656700
2.667965
2.672149
2.688563
2.706587
2.724932
2.741990
2.756473
2.764197
2.763876
2.759370
2.747461
2.730082
2.713345
2.714311
2.746818
2.779324
2.800566
2.801210
2.788336
2.769347
2.750358
2.732334
2.722357
2.717208
2.716564
2.722679
2.737162
2.750358
2.756151
2.753255
2.751645
2.759048
2.770313
2.782221
2.785761
2.779646
2.767738
2.755829
2.748749
2.747139
2.755829
2.770313
2.787049
2.795095
2.791876
2.778681
2.761301
2.741024
2.720748
2.705943
2.701437
2.701115
2.700471
2.699506
2.696609
2.704012
2.708839
2.699828
2.688563
2.678264
2.674402
2.676333
2.679229
2.684379
2.684701
2.680839
2.674723
2.668930
2.665712
2.661528
2.654125
2.646723
2.640929
2.638998
2.636423
2.637389
2.644470
2.649619
2.654447
2.657987
2.658309
2.657987
2.654447
2.646401
2.641895
2.640286
2.641895
2.642539
2.639964
2.635458
2.639642
2.648654
2.665390
2.682770
2.692103
2.689207
2.684379
2.671827
2.666355
2.669574
2.675689
2.676333
2.672149
2.671827
2.677620
2.673114
2.664102
2.650907
2.637711
2.628377
2.623550
2.612929
2.603595
2.592974
2.583318
2.571410
2.554996
2.537294
2.523133
2.507040
2.482902
2.456510
2.428509
2.400508
2.380232
2.360599
2.348047
2.336460
2.313609
2.279493
2.246986
2.227997
2.232503
2.231216
2.219629
2.203537
2.185513
2.163949
2.139489
2.121465
2.105051
2.093786
2.092177
2.096361
2.094430
2.084453
2.078981
2.068682
2.055486
2.040037
2.026198
2.016221
2.009140
2.007209
2.002059
1.997232
1.993369
1.988542
1.980817
1.974702
1.965690
1.961828
1.960863
1.963759
1.962472
1.961828
1.960541
1.956679
1.949276
1.942839
1.940586
1.940586
1.943483
1.943805
1.940586
1.936724
1.931896
1.926747
1.923528
1.920310
1.911298
1.903252
1.898102
1.892953
1.894884
1.909367
1.928356
1.942195
1.953138
1.960863
1.960219
1.951207
1.942839
1.934149
1.927390
1.920632
1.908723
1.900033
1.905505
1.920632
1.938977
1.950563
1.950563
1.943161
1.934149
1.925137
1.922884
1.926425
1.928356
1.930287
1.930609
1.933505
1.935437
1.934149
1.931574
1.929000
1.923850
1.918700
1.909367
1.899389
1.904861
1.924816
1.939299
1.943161
1.941552
1.938011
1.933184
1.929643
1.928034
1.932540
1.934149
1.932540
1.926747
1.923528
1.920632
1.917413
1.914516
1.914195
1.911620
1.904217
1.900677
1.909045
1.935115
1.957644
1.967943
1.968587
1.969874
1.969553
1.966978
1.961828
1.956357
1.947989
1.942517
1.942517
1.949920
1.959897
1.967300
1.974058
1.980174
1.980174
1.974702
1.966978
1.951529
1.935437
1.932218
1.949920
1.967300
1.981461
1.991760
1.997875
2.003025
2.002703
1.999163
1.993691
1.986289
1.977599
1.974702
1.974702
1.975024
1.975346
1.976311
1.975668
1.977599
1.977599
1.979852
1.981461
1.981783
1.987898
1.996266
2.004312
2.010749
2.010749
2.005921
2.001737
2.003025
2.003347
2.004312
2.008174
2.016864
2.025554
2.034244
2.043578
2.044865
2.046153
2.055164
2.069326
2.082522
2.086706
2.083487
2.069648
2.057417
2.054199
2.064498
2.079947
2.098292
2.115672
2.124362
2.125006
2.126615
2.126937
2.122109
2.115672
2.106016
2.101189
2.099901
2.101189
2.101511
2.103442
2.109879
2.117925
2.117281
2.110522
2.105051
2.095717
2.082843
2.063211
2.041003
2.025876
2.010427
1.993691
1.981139
1.980817
1.986932
1.985967
1.977599
1.967300
1.967621
1.967943
1.969231
1.967943
1.962472
1.951851
1.942195
1.935437
1.926747
1.915804
1.913551
1.914195
1.912907
1.913551
1.913229
1.915482
1.914195
1.909689
1.906148
1.900677
1.896815
1.891343
1.884906
1.880722
1.877504
1.873963
1.867526
1.861411
1.853365
1.853043
1.863342
1.878469
1.891021
1.912907
1.939621
1.972127
2.017508
2.075441
2.144638
2.225101
2.321333
2.429796
2.552099
2.682126
2.801854
2.882638
2.870408
2.740703
2.514121
2.235078
1.948632
1.698878
1.527010
1.432709
1.407283
1.424341
1.463928
1.525723
1.583656
1.630968
1.664440
1.684073
1.701452
1.716579
1.735247
1.757776
1.770328
1.774190
1.770006
1.764857
1.762282
1.760994
1.760351
1.760673
1.767753
1.779340
1.790926
1.799938
1.807984
1.812490
1.810559
1.815065
1.813778
1.809594
1.803479
1.799294
1.797363
1.803800
1.809915
1.818927
1.821180
1.826652
1.842744
1.859480
1.871710
1.877826
1.878469
1.873642
1.875573
1.881044
1.891343
1.897458
1.901642
1.904217
1.909367
1.921919
1.931253
1.929000
1.925137
1.935758
1.945736
1.950563
1.955391
1.957644
1.961828
1.963437
1.964725
1.969553
1.979208
1.994979
2.013324
2.025876
2.034888
2.042612
2.048406
2.050337
2.048084
2.047762
2.047762
2.059670
2.077372
2.093143
2.100545
2.106016
2.105051
2.104085
2.109235
2.115994
2.123718
2.137236
2.148822
2.162662
2.180364
2.204502
2.223813
2.236365
2.248596
2.255998
2.264688
2.273700
2.278849
2.285930
2.295585
2.306206
2.318115
2.332920
2.344828
2.356093
2.368001
2.378944
2.392784
2.403405
2.412095
2.419819
2.433337
2.448464
2.463269
2.470349
2.471959
2.469384
2.467453
2.469062
2.470349
2.464556
2.452326
2.440417
2.438486
2.435268
2.430440
2.417566
2.401474
2.386347
2.373151
2.354806
2.331633
2.306528
2.292045
2.284321
2.277240
2.264688
2.252136
2.243768
2.238940
2.229606
2.221560
2.226388
2.219307
2.204180
2.192594
2.182617
2.176501
2.176180
2.183260
2.182617
2.177145
2.167168
2.158478
2.154294
2.153328
2.154294
2.159765
2.163306
2.161374
2.157512
2.155259
2.161374
2.167811
2.165559
2.158800
2.157190
2.160409
2.163627
2.167811
2.170386
2.171996
2.174248
2.176501
2.180364
2.179720
2.181329
2.177789
2.176180
2.176823
2.179720
2.178432
2.171674
2.165559
2.165880
2.165237
2.161374
2.153972
2.152041
2.150110
2.153328
2.154616
2.152041
2.150432
2.136270
2.118569
2.108269
2.097970
2.090246
2.087349
2.084453
2.079303
2.074475
2.075763
2.076085
2.080269
2.090890
2.094752
2.091533
2.080269
2.068682
2.060636
2.059670
2.064820
2.074797
2.082843
2.090246
2.094752
2.097327
2.099580
2.096683
2.095395
2.093786
2.091533
2.091211
2.098614
2.106338
2.118569
2.131764
2.138523
2.141420
2.143029
2.145282
2.157834
2.170064
2.171352
2.174892
2.177789
2.174892
2.172961
2.166846
2.172317
2.185835
2.210939
2.225101
2.229285
2.232825
2.235078
2.237975
2.238940
2.245055
2.252780
2.256320
2.256964
2.254067
2.253101
2.251170
2.250527
2.259217
2.280459
2.298160
2.311356
2.322299
2.335817
2.344828
2.345794
2.338391
2.335173
2.337104
2.339679
2.339679
2.337748
2.343219
2.353518
2.372186
2.382163
2.390209
2.399221
2.396646
2.394715
2.398577
2.414670
2.429153
2.435268
2.442349
2.450717
2.453291
2.447820
2.435590
2.432049
2.444923
2.455223
2.462947
2.470671
2.479683
2.484189
2.483545
2.489982
2.494488
2.496741
2.499316
2.506397
2.511224
2.517339
2.527639
2.536328
2.544375
2.547271
2.543731
2.541800
2.537938
2.533432
2.537294
2.548559
2.556927
2.561111
2.566904
2.578813
2.584606
2.582353
2.578491
2.580422
2.592330
2.602951
2.609066
2.617756
2.627412
2.632883
2.649941
2.662171
2.665068
2.665068
2.670539
2.682126
2.685666
2.684057
2.686954
2.691460
2.697897
2.706265
2.715920
2.727829
2.742312
2.755829
2.753576
2.743599
2.736518
2.731691
2.738771
2.744243
2.744565
2.746174
2.750680
2.746174
2.733944
2.718173
2.704012
2.690172
2.679551
2.671827
2.675367
2.676333
2.674723
2.672471
2.671505
2.674080
2.674723
2.673436
2.670539
2.664746
2.656378
2.642217
2.633205
2.640608
2.648332
2.657987
2.658309
2.656378
2.657022
2.655091
2.649941
2.648332
2.648332
2.653803
2.657344
2.659275
2.658309
2.660240
2.659597
2.659918
2.655413
2.648010
2.652838
2.660240
2.667321
2.668930
2.668608
2.673114
2.674080
2.676976
2.682126
2.693391
2.710127
2.735875
2.774497
2.826958
2.898408
2.993354
3.102461
3.224763
3.357043
3.504450
3.648316
3.759032
3.804735
3.748090
3.578153
3.317456
3.016205
2.723001
2.484511
2.336460
2.282068
2.299126
2.353196
2.407589
2.465200
2.533754
2.576238
2.593939
2.600376
2.607135
2.618722
2.633205
2.641895
2.642539
2.641895
2.639642
2.636745
2.630952
2.634814
2.632561
2.620653
2.607135
2.599733
2.601986
2.601020
2.606170
2.610997
2.614216
2.613250
2.613250
2.613250
2.615181
2.611963
2.603595
2.596836
2.590077
2.582997
2.580422
2.584284
2.597802
2.607457
2.615825
2.618400
2.615503
2.611641
2.608423
2.604239
2.602629
2.600698
2.587181
2.606813
2.610354
2.604239
2.601986
2.607457
2.616791
2.635458
2.647366
2.647688
2.647366
2.646401
2.641251
2.638676
2.635458
2.636745
2.636745
2.642539
2.656378
2.666999
2.666677
2.663459
2.669252
2.670539
2.671505
2.676655
2.685666
2.690494
2.693713
2.698218
2.702081
2.708518
2.721070
2.729116
2.732013
2.732013
2.730082
2.741024
2.759692
2.773209
2.784474
2.794773
2.807325
2.816981
2.825992
2.834682
2.841119
2.845303
2.849809
2.848522
2.852062
2.871695
2.886822
2.892293
2.901949
2.914179
2.916754
2.913857
2.908386
2.902593
2.902914
2.909673
2.909029
2.904202
2.896156
2.890362
2.888431
2.892937
2.895190
2.891971
2.876201
2.854637
2.838545
2.825027
2.807647
2.795417
2.781899
2.766129
2.745208
2.723645
2.699828
2.673114
2.652194
2.634814
2.620331
2.607779
2.597158
2.586215
2.578491
2.572376
2.559180
2.547271
2.537616
2.526995
2.511224
2.497063
2.487407
2.481614
2.477752
2.484511
2.484189
2.477108
2.466165
2.466165
2.462303
2.450717
2.444923
2.441705
2.446533
2.446533
2.446854
2.449429
2.460372
2.467131
2.470671
2.468096
2.462625
2.457154
2.456832
2.456832
2.453291
2.447176
2.448142
2.452004
2.461660
2.477430
2.491913
2.499638
2.498994
2.491270
2.482258
2.474533
2.471315
2.472281
2.475821
2.481292
2.486442
2.490304
2.491591
2.491270
2.490626
2.487407
2.485154
2.484189
2.487407
2.489982
2.494488
2.503178
2.517339
2.527960
2.529891
2.532144
2.521845
2.510902
2.507684
2.502856
2.495132
2.487086
2.486120
2.495454
2.501569
2.506397
2.514121
2.529248
2.538260
2.538581
2.533754
2.524742
2.518627
2.512833
2.508328
2.507684
2.507362
2.515730
2.521845
2.523133
2.526029
2.517983
2.507040
2.501891
2.505109
2.511546
2.526673
2.543409
2.552743
2.556605
2.552421
2.544697
2.536007
2.527960
2.518949
2.508649
2.508649
2.524420
2.536650
2.546628
2.556605
2.558858
2.551455
2.542444
2.533754
2.529891
2.530535
2.531501
2.529570
2.522811
2.513799
2.508971
2.517983
2.526673
2.532144
2.532788
2.540191
2.543087
2.537294
2.532144
2.523455
2.518949
2.514121
2.510259
2.516696
2.525386
2.529891
2.529248
2.524742
2.519592
2.519914
2.526029
2.532466
2.533110
2.531823
2.528282
2.521523
2.513799
2.505753
2.502212
2.504787
2.508328
2.508971
2.508328
2.507362
2.511868
2.515086
2.521845
2.523455
2.515408
2.508328
2.498994
2.485476
2.474533
2.467775
2.462625
2.459407
2.455544
2.457797
2.453613
2.458441
2.467131
2.468740
2.472602
2.480327
2.489660
2.489982
2.485798
2.475821
2.467453
2.458441
2.450395
2.447176
2.451682
2.454257
2.453613
2.455544
2.461660
2.468418
2.474855
2.477752
2.475177
2.470993
2.472281
2.473568
2.473568
2.473890
2.477108
2.485154
2.494166
2.502212
2.507684
2.515086
2.523776
2.534076
2.541800
2.537938
2.532144
2.530857
2.528604
2.525707
2.525064
2.534076
2.549202
2.562076
2.574307
2.583640
2.594905
2.601342
2.601020
2.591365
2.580422
2.575272
2.572697
2.569801
2.568513
2.570766
2.563364
2.548237
2.540191
2.540191
2.541800
2.542122
2.540512
2.529248
2.509937
2.495454
2.495454
2.491913
2.486120
2.480970
2.474212
2.463591
2.457797
2.460050
2.469062
2.480970
2.488695
2.493201
2.490626
2.481936
2.471637
2.464556
2.468096
2.479039
2.487729
2.489339
2.487086
2.484511
2.476786
2.470349
2.467131
2.471959
2.475499
2.476143
2.480327
2.484189
2.493844
2.498994
2.496419
2.501247
2.505431
2.510581
2.515730
2.519914
2.526351
2.528604
2.538903
2.567870
2.620331
2.690816
2.776106
2.871051
2.977583
3.098920
3.240856
3.388263
3.514749
3.598752
3.594246
3.464219
3.227016
2.935743
2.644148
2.389565
2.212548
2.130477
2.119534
2.154294
2.208043
2.260826
2.308459
2.346116
2.372829
2.387312
2.396646
2.405014
2.412417
2.412417
2.400186
2.384416
2.374117
2.368645
2.374438
2.378301
2.372829
2.361886
2.346759
2.334529
2.322299
2.307172
2.291723
2.278849
2.264366
2.239906
2.217376
2.191306
2.177789
2.171352
2.169421
2.168133
2.174248
2.183260
2.192594
2.197100
2.197422
2.198709
2.201606
2.206111
2.212227
2.220273
2.227354
2.231859
2.234434
2.241193
2.248274
2.247630
2.245699
2.248274
2.251170
2.257929
2.264366
2.267906
2.282712
2.295907
2.301701
2.300413
2.293976
2.287861
2.280780
2.277240
2.285930
2.297838
2.316184
2.339035
2.360277
2.377979
2.388600
2.396002
2.399221
2.396968
2.396002
2.400830
2.406302
2.416923
2.426900
2.434624
2.442992
2.444280
2.447498
2.460694
2.480649
2.500281
2.517661
2.530857
2.539547
2.542765
2.547915
2.554674
2.563364
2.575272
2.594261
2.617113
2.634171
2.642217
2.647688
2.652516
2.660884
2.670218
2.680195
2.689529
2.699828
2.710127
2.717851
2.729438
2.738128
2.747461
2.756473
2.765163
2.771922
2.772887
2.770634
2.764841
2.760979
2.764197
2.763232
2.756151
2.760335
2.770956
2.772244
2.763232
2.748105
2.732334
2.714311
2.696931
2.675689
2.655734
2.641895
2.629665
2.613250
2.598767
2.587181
2.578169
2.566260
2.547593
2.529248
2.509937
2.495776
2.479361
2.461981
2.445889
2.439130
2.433015
2.430118
2.436233
2.440417
2.439452
2.441383
2.434302
2.424969
2.413060
2.402439
2.395037
2.393749
2.388922
2.381519
2.382163
2.392784
2.406945
2.416601
2.419819
2.419497
2.411773
2.404692
2.402439
2.399221
2.393428
2.387634
2.386991
2.401474
2.411451
2.417888
2.430762
2.436877
2.433337
2.426256
2.425612
2.428509
2.425291
2.418532
2.418532
2.425612
2.433981
2.440417
2.444602
2.440739
2.436555
2.433981
2.438165
2.449751
2.462625
2.469062
2.470028
2.467453
2.468096
2.466165
2.464234
2.462303
2.459085
2.465844
2.466809
2.462303
2.463269
2.465844
2.471315
2.479361
2.491913
2.507040
2.510902
2.502856
2.488695
2.477430
2.479683
2.483867
2.487407
2.503822
2.524420
2.531179
2.526029
2.515730
2.501247
2.489339
2.484511
2.481292
2.486120
2.491270
2.499316
2.507684
2.520236
2.528604
2.528926
2.525064
2.516696
2.508006
2.503822
2.505431
2.510902
2.512512
2.511546
2.509615
2.515086
2.523455
2.527317
2.531501
2.533432
2.531501
2.532144
2.536650
2.540512
2.542122
2.540512
2.535041
2.537616
2.548237
2.555639
2.564329
2.567548
2.566582
2.559180
2.549846
2.540512
2.536650
2.540512
2.552099
2.565617
2.575594
2.579134
2.575916
2.567548
2.563364
2.561111
2.554996
2.553708
2.558214
2.566904
2.573985
2.576560
2.575916
2.583962
2.598123
2.602307
2.599089
2.592330
2.586537
2.577847
2.570444
2.572697
2.579134
2.579134
2.578813
2.581387
2.586215
2.590399
2.583640
2.572054
2.573019
2.587181
2.594583
2.590077
2.576560
2.574307
2.586215
2.591043
2.588468
2.587824
2.596192
2.603917
2.605526
2.609388
2.609388
2.604882
2.605848
2.610032
2.608744
2.601020
2.596192
2.598123
2.601986
2.610354
2.614216
2.615825
2.621940
2.625481
2.623228
2.612929
2.605526
2.602307
2.608744
2.620009
2.627734
2.628377
2.627090
2.624193
2.620653
2.614216
2.608744
2.611963
2.621618
2.628699
2.633205
2.636102
2.638998
2.629986
2.623871
2.625481
2.625802
2.626768
2.622584
2.622906
2.627412
2.637711
2.647366
2.648976
2.650263
2.659597
2.670861
2.671183
2.664424
2.653481
2.648654
2.647044
2.645435
2.651229
2.659275
2.661528
2.658631
2.649941
2.643504
2.649297
2.655091
2.663137
2.666034
2.662493
2.654447
2.648654
2.655091
2.665712
2.673436
2.673758
2.671505
2.668608
2.669896
2.669574
2.667643
2.668930
2.675689
2.680517
2.677942
2.675045
2.671827
2.664102
2.659275
2.669252
2.677942
2.685345
2.689529
2.695966
2.698540
2.695322
2.696609
2.701759
2.712380
2.723001
2.729438
2.740381
2.747139
2.745852
2.741668
2.741024
2.741024
2.738128
2.732656
2.730403
2.730725
2.735875
2.745530
2.760657
2.772887
2.779324
2.778681
2.778681
2.776428
2.776106
2.776428
2.771922
2.765485
2.754864
2.742955
2.739415
2.737806
2.738450
2.741668
2.741346
2.733944
2.726541
2.712380
2.695000
2.677942
2.666677
2.661206
2.670218
2.679229
2.677298
2.668608
2.659918
2.657344
2.658953
2.661206
2.665068
2.660884
2.650585
2.649297
2.655091
2.651229
2.643826
2.632883
2.627412
2.629986
2.641251
2.651872
2.660562
2.662493
2.659597
2.651872
2.648654
2.649941
2.650263
2.650907
2.645435
2.639320
2.636423
2.638355
2.644470
2.656378
2.659275
2.669574
2.688563
2.725254
2.786405
2.864614
2.956985
3.059655
3.176164
3.306513
3.442655
3.578153
3.699169
3.771906
3.744227
3.595855
3.352537
3.055471
2.765163
2.528282
2.371542
2.299448
2.302988
2.347403
2.404370
2.455223
2.497063
2.529570
2.557892
2.570766
2.574628
2.587502
2.600376
2.609710
2.620331
2.627734
2.629021
2.621618
2.614538
2.608744
2.604239
2.602307
2.601342
2.601020
2.598767
2.598123
2.601664
2.603273
2.602629
2.602951
2.606813
2.611641
2.614216
2.614538
2.612929
2.610032
2.606813
2.604239
2.604882
2.610354
2.617113
2.628377
2.636102
2.635780
2.630952
2.627734
2.621940
2.617434
2.613894
2.613250
2.609710
2.603917
2.600055
2.604239
2.612929
2.620009
2.624193
2.624193
2.623550
2.624837
2.620331
2.620975
2.628699
2.635136
2.638355
2.639642
2.642860
2.642217
2.638676
2.636102
2.632239
2.630308
2.635458
2.640286
2.641895
2.642539
2.645113
2.654447
2.663137
2.668608
2.673758
2.676976
2.677942
2.684379
2.685988
2.687919
2.697575
2.705299
2.716564
2.722357
2.733944
2.746818
2.752933
2.753898
2.757117
2.755186
2.762910
2.786727
2.807647
2.823740
2.837579
2.843694
2.842407
2.836613
2.829211
2.831142
2.836613
2.844016
2.850131
2.858821
2.861396
2.883282
2.902593
2.910317
2.908708
2.901305
2.889075
2.879098
2.880385
2.887787
2.834682
2.815050
2.801210
2.785440
2.769669
2.751967
2.738128
2.725897
2.712380
2.699184
2.683413
2.659918
2.637389
2.616147
2.590399
2.566260
2.547271
2.536007
2.532144
2.528282
2.528604
2.525064
2.516374
2.504787
2.494810
2.489660
2.489339
2.486120
2.477108
2.465200
2.455544
2.445245
2.441061
2.440096
2.448464
2.454901
2.454579
2.442670
2.429475
2.422394
2.419819
2.432371
2.441383
2.438808
2.438486
2.441061
2.439130
2.424003
2.413382
2.416923
2.427544
2.434946
2.441061
2.443636
2.440739
2.431728
2.420141
2.414348
2.417244
2.421428
2.432049
2.437521
2.436555
2.434624
2.432371
2.430762
2.431084
2.424969
2.415313
2.409842
2.404370
2.392462
2.380554
2.374117
2.375726
2.377335
2.378623
2.379266
2.380554
2.376370
2.371220
2.369289
2.367680
2.366070
2.362208
2.363496
2.361565
2.351265
2.341288
2.342575
2.345472
2.341610
2.345472
2.351909
2.353840
2.351909
2.352553
2.358024
2.361243
2.356737
2.351265
2.348691
2.347725
2.346759
2.349334
2.355771
2.359955
2.357380
2.360599
2.360921
2.358346
2.354806
2.353840
2.354484
2.350943
2.347725
2.349656
2.355128
2.362208
2.373473
2.383772
2.388600
2.390209
2.388600
2.386025
2.382807
2.379266
2.377335
2.376691
2.377013
2.378301
2.382163
2.394071
2.414348
2.420785
2.417566
2.412738
2.409198
2.404692
2.400186
2.397612
2.396646
2.396002
2.396002
2.395680
2.398255
2.405980
2.419175
2.424647
2.420785
2.420785
2.430440
2.436233
2.441705
2.443636
2.444602
2.444280
2.440739
2.433015
2.430440
2.442349
2.449429
2.460050
2.472602
2.468740
2.468096
2.455223
2.446854
2.446854
2.455866
2.463269
2.465200
2.458441
2.447498
2.442992
2.447498
2.469384
2.475177
2.469062
2.461660
2.465200
2.467131
2.468418
2.469706
2.473568
2.472924
2.472281
2.473246
2.478718
2.483223
2.489339
2.493523
2.491591
2.490948
2.496097
2.495776
2.493523
2.493844
2.490304
2.486442
2.483867
2.485476
2.484511
2.482580
2.479039
2.485798
2.489982
2.488695
2.490626
2.494488
2.498350
2.508006
2.513477
2.507040
2.503822
2.496419
2.489339
2.490304
2.497385
2.509293
2.520880
2.531179
2.535041
2.533754
2.530213
2.527317
2.524420
2.526351
2.528926
2.534397
2.532788
2.529248
2.527960
2.538903
2.555639
2.562720
2.564651
2.558858
2.552743
2.550168
2.550168
2.547915
2.551455
2.558536
2.561755
2.559502
2.556927
2.552743
2.554352
2.561111
2.571088
2.582031
2.589112
2.600376
2.608101
2.612285
2.608101
2.605848
2.601986
2.602307
2.606170
2.608423
2.612285
2.625159
2.638033
2.656378
2.668930
2.676011
2.681804
2.682770
2.682770
2.679229
2.662493
2.641895
2.631596
2.637389
2.653160
2.660884
2.666355
2.666355
2.662493
2.651229
2.637389
2.621940
2.605526
2.590721
2.581387
2.573019
2.564329
2.559823
2.562720
2.567870
2.564973
2.559502
2.554674
2.562076
2.568835
2.567226
2.568192
2.567870
2.566904
2.563042
2.563042
2.560145
2.555639
2.554352
2.550490
2.547593
2.547271
2.548881
2.549846
2.558214
2.566582
2.566260
2.558536
2.555318
2.563686
2.563364
2.556283
2.548559
2.545984
2.552099
2.558536
2.560145
2.563042
2.579134
2.602951
2.639320
2.695322
2.771278
2.855281
2.951514
3.070919
3.195797
3.329686
3.466472
3.595855
3.685973
3.679858
3.547900
3.307478
3.005906
2.714955
2.475821
2.318115
2.245699
2.236043
2.264688
2.309425
2.357702
2.404370
2.445889
2.481292
2.523133
2.546949
2.551777
2.551455
2.551455
2.553708
2.557249
2.555639
2.550168
2.544697
2.536972
2.535041
2.534397
2.534397
2.538581
2.540834
2.542122
2.537616
2.536972
2.538581
2.542122
2.550490
2.552099
2.552421
2.556605
2.553708
2.545662
2.535363
2.522489
2.515086
2.526029
2.543087
2.560467
2.570123
2.571732
2.568835
2.563686
2.564329
2.556605
2.548881
2.544375
2.545018
2.546628
2.547915
2.545662
2.542122
2.541478
2.553386
2.564329
2.568513
2.570123
2.567226
2.568513
2.574628
2.578813
2.581065
2.584284
2.590721
2.591686
2.592008
2.588146
2.581065
2.581387
2.583640
2.589112
2.598123
2.613572
2.621940
2.620009
2.616469
2.624515
2.626768
2.626124
2.627734
2.629665
2.634814
2.645435
2.658953
2.673436
2.680195
2.681804
2.681804
2.692747
2.702081
2.709483
2.714955
2.723001
2.736518
2.742634
2.742634
2.743277
2.753255
2.765163
2.769991
2.772566
2.774175
2.778037
2.779968
2.777393
2.777393
2.783187
2.791233
2.802176
2.820199
2.821487
2.818268
2.821165
2.817624
2.810222
2.803785
2.797670
2.793486
2.782865
2.770313
2.755508
2.737162
2.723323
2.715598
2.707552
2.707874
2.704977
2.696609
2.682126
2.658631
2.629343
2.604239
2.582353
2.552743
2.532788
2.508649
2.486442
2.471637
2.457797
2.447498
2.435912
2.417888
2.394071
2.375082
2.366070
2.365749
2.363817
2.351587
2.338070
2.321977
2.308138
2.302666
2.300735
2.301057
2.308138
2.312322
2.314253
2.307816
2.295585
2.283999
2.272734
2.267263
2.263401
2.261470
2.283355
2.302666
2.307816
2.303954
2.293654
2.282712
2.276596
2.279171
2.282712
2.288183
2.289149
2.289149
2.286574
2.280780
2.282390
2.279815
2.279493
2.283355
2.286896
2.292045
2.299770
2.295907
2.290436
2.282712
2.280459
2.288505
2.297517
2.305241
2.321012
2.327449
2.325517
2.324230
2.317793
2.309747
2.304597
2.308459
2.313931
2.319402
2.317471
2.315218
2.320690
2.320368
2.323264
2.334529
2.340966
2.344828
2.346759
2.339679
2.333564
2.334851
2.336138
2.338070
2.342575
2.349656
2.354806
2.357702
2.364461
2.366070
2.358990
2.344507
2.337104
2.340322
2.344185
2.346759
2.350300
2.353518
2.355128
2.353518
2.352553
2.356737
2.359633
2.359312
2.367680
2.376048
2.383772
2.383450
2.374117
2.364461
2.361243
2.360921
2.365427
2.375404
2.383450
2.386669
2.385059
2.385703
2.388922
2.389887
2.388278
2.386991
2.392140
2.401474
2.414670
2.418532
2.419497
2.417244
2.407267
2.396646
2.388922
2.389887
2.404692
2.422394
2.434302
2.431406
2.426900
2.421107
2.420785
2.421750
2.424003
2.435590
2.439774
2.439130
2.436555
2.432049
2.429153
2.427865
2.428509
2.430118
2.430762
2.430118
2.440096
2.451039
2.455223
2.452648
2.450717
2.444923
2.448142
2.451039
2.451039
2.445245
2.436233
2.435268
2.439130
2.446533
2.456510
2.465522
2.472602
2.479683
2.482902
2.481614
2.473246
2.470028
2.466809
2.466165
2.474212
2.475499
2.476786
2.480327
2.480327
2.480970
2.480970
2.478396
2.481936
2.487407
2.497707
2.502856
2.508971
2.512512
2.511868
2.508971
2.510581
2.506075
2.498350
2.492879
2.490304
2.486764
2.484511
2.486764
2.495454
2.506397
2.516374
2.528282
2.526351
2.521202
2.511224
2.509937
2.510902
2.515086
2.520558
2.529570
2.536328
2.539869
2.549202
2.565295
2.578169
2.585893
2.582997
2.581065
2.583318
2.587824
2.589112
2.589755
2.595227
2.596836
2.603273
2.611319
2.616469
2.620975
2.623871
2.623550
2.621940
2.624837
2.630308
2.633849
2.635458
2.634814
2.629665
2.626446
2.630308
2.626446
2.622262
2.620653
2.609710
2.599089
2.586537
2.575594
2.566904
2.557892
2.548881
2.536650
2.524098
2.517983
2.510259
2.516052
2.525064
2.536650
2.552099
2.566582
2.568835
2.558214
2.540834
2.527639
2.518949
2.519270
2.523455
2.530213
2.537294
2.537616
2.537616
2.535041
2.531501
2.529891
2.529891
2.530213
2.532466
2.530213
2.531179
2.530213
2.523455
2.520558
2.518949
2.526673
2.532788
2.541800
2.548237
2.556927
2.567870
2.586859
2.617756
2.665390
2.730403
2.806682
2.900018
3.009768
3.134324
3.268857
3.406608
3.527623
3.612913
3.610338
3.492220
3.285593
3.020389
2.738128
2.506075
2.343219
2.251814
2.230250
2.248917
2.285608
2.328736
2.373151
2.411451
2.444280
2.462625
2.478074
2.489982
2.495132
2.504465
2.514765
2.525386
2.534719
2.540834
2.543087
2.538903
2.532144
2.524098
2.520236
2.524098
2.526351
2.523133
2.515730
2.512190
2.513799
2.513799
2.515086
2.518627
2.520236
2.524098
2.521845
2.521845
2.522167
2.522811
2.521202
2.524098
2.531179
2.539547
2.541156
2.536007
2.541156
2.556283
2.566904
2.568513
2.563042
2.556283
2.546949
2.543087
2.539225
2.539547
2.541478
2.546628
2.555639
2.569801
2.579778
2.578813
2.576881
2.573985
2.571732
2.572697
2.577525
2.581065
2.583962
2.590399
2.603917
2.617113
2.619687
2.617113
2.612929
2.605204
2.598767
2.600055
2.603595
2.608744
2.614216
2.623550
2.638355
2.648976
2.654769
2.665712
2.686310
2.695966
2.698862
2.698540
2.695644
2.694356
2.691781
2.693713
2.714633
2.732656
2.746496
2.759370
2.765163
2.769025
2.776428
2.788658
2.795095
2.799923
2.798957
2.803463
2.813762
2.822774
2.826314
2.831464
2.842085
2.852384
2.865902
2.878454
2.890040
2.896477
2.894546
2.888109
2.881994
2.879419
2.881672
2.884247
2.881350
2.875557
2.865902
2.856246
2.845303
2.827924
2.809256
2.799279
2.787049
2.769025
2.742955
2.717208
2.698862
2.673436
2.645757
2.627412
2.632883
2.637711
2.633205
2.622906
2.599733
2.570444
2.533110
2.508649
2.505431
2.502534
2.493201
2.480970
2.467775
2.453613
2.442027
2.444602
2.444280
2.443314
2.444923
2.442349
2.430440
2.416601
2.404049
2.395037
2.388922
2.386025
2.383450
2.384094
2.387956
2.391175
2.394071
2.396968
2.399865
2.402761
2.400186
2.391175
2.384416
2.377979
2.377013
2.385059
2.390531
2.392462
2.397612
2.410164
2.420141
2.421107
2.422716
2.421107
2.418532
2.405980
2.389887
2.378301
2.375404
2.383450
2.398899
2.411129
2.421750
2.429475
2.443958
2.446533
2.438165
2.428831
2.424003
2.415635
2.405980
2.409198
2.417244
2.424325
2.428509
2.433659
2.443958
2.444280
2.440739
2.435268
2.430440
2.424647
2.422716
2.422716
2.424969
2.434302
2.442027
2.451039
2.459728
2.460694
2.457154
2.451039
2.441061
2.429153
2.427222
2.433659
2.448786
2.457154
2.464878
2.462947
2.455866
2.448786
2.443958
2.436555
2.433015
2.435912
2.442349
2.452004
2.452648
2.446533
2.437521
2.443636
2.465200
2.484189
2.490304
2.489339
2.484511
2.474533
2.465844
2.458119
2.456188
2.457475
2.456510
2.455223
2.457154
2.469062
2.474533
2.476786
2.476143
2.475821
2.470671
2.466487
2.463591
2.461338
2.460050
2.469062
2.480649
2.486120
2.486120
2.488373
2.486442
2.489339
2.490626
2.485476
2.481292
2.479039
2.482902
2.487086
2.490626
2.492557
2.493523
2.492557
2.491591
2.489660
2.488051
2.485798
2.485476
2.483223
2.480327
2.480970
2.483867
2.498350
2.507040
2.505109
2.504465
2.517018
2.537938
2.557892
2.570123
2.573341
2.566582
2.557249
2.558214
2.558858
2.564651
2.566260
2.567870
2.564651
2.563042
2.560789
2.565295
2.579456
2.599411
2.618400
2.629343
2.628377
2.626446
2.623550
2.625802
2.621940
2.608744
2.594261
2.594905
2.605848
2.612929
2.609066
2.600698
2.593618
2.585571
2.582675
2.580100
2.577203
2.571088
2.564007
2.555961
2.543409
2.528926
2.522167
2.517661
2.511868
2.508328
2.513155
2.518305
2.520236
2.523455
2.522811
2.518949
2.508971
2.508649
2.511868
2.514765
2.509937
2.509937
2.520236
2.522489
2.517661
2.518949
2.519914
2.518949
2.518949
2.514765
2.507684
2.508006
2.516374
2.522489
2.524098
2.518305
2.504787
2.497063
2.498350
2.512512
2.531501
2.541800
2.548881
2.567870
2.589755
2.620653
2.666999
2.733300
2.816659
2.919329
3.037769
3.167474
3.299754
3.432999
3.558199
3.629971
3.599395
3.441046
3.181314
2.881994
2.602307
2.390531
2.265975
2.224457
2.247630
2.295585
2.340644
2.377657
2.399543
2.403405
2.407911
2.412417
2.416923
2.426900
2.447176
2.472924
2.501247
2.519914
2.526673
2.524420
2.526351
2.528926
2.526351
2.520558
2.519270
2.516696
2.514443
2.514121
2.517018
2.521845
2.533432
2.550490
2.562398
2.566582
2.565939
2.554674
2.543087
2.536972
2.533754
2.539547
2.548559
2.552743
2.553065
2.556605
2.562398
2.558536
2.551455
2.539225
2.525386
2.514443
2.521523
2.539225
2.554352
2.569157
2.589434
2.607457
2.609388
2.601342
2.592974
2.591686
2.589112
2.586215
2.583318
2.577203
2.573663
2.572054
2.578169
2.583640
2.585249
2.599089
2.622262
2.640929
2.646401
2.641895
2.636423
2.626768
2.615825
2.609388
2.618078
2.629021
2.633205
2.640286
2.651229
2.659275
2.672792
2.683735
2.687276
2.685666
2.687276
2.689850
2.689529
2.688563
2.692103
2.706587
2.722035
2.737162
2.749071
2.757761
2.760013
2.761301
2.765807
2.772887
2.777071
2.787371
2.796704
2.801532
2.802819
2.812475
2.827280
2.837257
2.844338
2.846913
2.846913
2.848522
2.853671
2.858499
2.856246
2.850131
2.849166
2.855924
2.856568
2.850131
2.836292
2.817303
2.803463
2.799601
2.801210
2.800566
2.797670
2.790267
2.771278
2.741990
2.714955
2.686632
2.664102
2.649297
2.638033
2.626124
2.604560
2.580744
2.564007
2.554674
2.555639
2.553708
2.545018
2.526995
2.499638
2.473246
2.452326
2.439452
2.428831
2.433659
2.438808
2.442349
2.442670
2.435590
2.419819
2.406302
2.403083
2.397612
2.391818
2.387312
2.384094
2.383128
2.379910
2.372829
2.365749
2.373473
2.393428
2.406945
2.410164
2.410807
2.402761
2.386991
2.368967
2.358990
2.360599
2.369933
2.378944
2.382163
2.379910
2.375082
2.377979
2.384738
2.391818
2.393428
2.396002
2.391818
2.386347
2.389565
2.399543
2.398255
2.394393
2.389565
2.385059
2.382485
2.384738
2.385059
2.386991
2.387312
2.392140
2.394715
2.398577
2.399865
2.405980
2.409842
2.403405
2.392462
2.388600
2.390531
2.394071
2.388922
2.385381
2.391818
2.400186
2.400830
2.401474
2.401796
2.407267
2.416279
2.423681
2.425934
2.422716
2.414026
2.404692
2.403405
2.400508
2.398255
2.398899
2.404049
2.413704
2.417566
2.417244
2.419819
2.429153
2.433981
2.436877
2.433659
2.423681
2.416601
2.424325
2.421750
2.415313
2.416923
2.420785
2.422072
2.420463
2.419175
2.420141
2.411773
2.404692
2.407267
2.419819
2.430440
2.429475
2.426578
2.418532
2.409842
2.411773
2.417888
2.423681
2.434624
2.445889
2.456188
2.462303
2.462625
2.461338
2.463912
2.465844
2.465200
2.462625
2.461338
2.465200
2.474533
2.483545
2.498672
2.509937
2.518949
2.520558
2.520880
2.515408
2.507362
2.508649
2.521202
2.534719
2.542765
2.548881
2.554674
2.555639
2.551777
2.557892
2.563042
2.567226
2.567226
2.556283
2.544697
2.541478
2.545984
2.542444
2.537938
2.538581
2.534076
2.528926
2.526029
2.520880
2.511224
2.500925
2.496741
2.498350
2.483223
2.467131
2.464878
2.464556
2.463912
2.465200
2.466487
2.470349
2.472281
2.468418
2.468418
2.468096
2.463269
2.462303
2.465844
2.476786
2.485798
2.486442
2.485798
2.485798
2.477752
2.473246
2.470671
2.477752
2.486442
2.493523
2.501247
2.505431
2.503822
2.496097
2.492557
2.491591
2.486442
2.482258
2.496419
2.515408
2.525707
2.525386
2.519270
2.537294
2.576881
2.632239
2.701437
2.779968
2.874592
2.984664
3.104714
3.239246
3.380538
3.508634
3.602614
3.621603
3.516680
3.296857
3.009124
2.711414
2.453935
2.281746
2.201606
2.200962
2.245699
2.303310
2.356415
2.394071
2.406623
2.403727
2.403083
2.406302
2.410486
2.429475
2.458441
2.492879
2.522811
2.542122
2.558214
2.565295
2.564329
2.554996
2.542122
2.526351
2.517661
2.519914
2.527960
2.541156
2.548559
2.558536
2.566582
2.566904
2.563686
2.560789
2.558214
2.554352
2.553065
2.556605
2.560145
2.567226
2.572376
2.576881
2.583962
2.594583
2.595549
2.595549
2.592330
2.591365
2.590721
2.592008
2.592330
2.594261
2.604239
2.613894
2.620975
2.624515
2.629986
2.636423
2.638355
2.635458
2.646723
2.653160
2.653160
2.650907
2.643826
2.636745
2.636745
2.647044
2.656700
2.658309
2.661850
2.662493
2.664424
2.670218
2.677942
2.690494
2.701759
2.714633
2.723001
2.719139
2.715598
2.712380
2.711092
2.712380
2.721392
2.734909
2.747139
2.758726
2.761945
2.760657
2.765485
2.771278
2.779324
2.790267
2.797026
2.808291
2.827602
2.843050
2.848844
2.847235
2.849487
2.854315
2.859143
2.860752
2.865580
2.881029
2.905167
2.931237
2.956663
2.961813
2.953766
2.942824
2.933812
2.929628
2.934456
2.936708
2.937030
2.940249
2.942502
2.932524
2.918041
2.908708
2.911604
2.914179
2.910961
2.899696
2.879741
2.852062
2.832429
2.822130
2.810544
2.799279
2.794773
2.777393
2.747461
2.717529
2.688563
2.663459
2.648976
2.639642
2.628377
2.612607
2.601664
2.591365
2.583640
2.582353
2.587824
2.585249
2.575594
2.563364
2.549524
2.529891
2.517983
2.511546
2.504465
2.500925
2.499960
2.502212
2.501569
2.496741
2.487407
2.482902
2.485798
2.489339
2.490948
2.488373
2.485154
2.478718
2.471315
2.467453
2.472602
2.478718
2.491591
2.500925
2.506718
2.508328
2.509937
2.507362
2.507362
2.505753
2.505431
2.509615
2.510902
2.508971
2.510259
2.511868
2.512190
2.513799
2.512833
2.513477
2.517661
2.521523
2.515408
2.522167
2.530213
2.535363
2.540834
2.547915
2.554352
2.557570
2.555961
2.553386
2.550490
2.544697
2.540512
2.536650
2.536650
2.539547
2.539547
2.531501
2.519270
2.511224
2.507040
2.517018
2.535363
2.544697
2.555318
2.563364
2.562076
2.554674
2.545340
2.540834
2.543409
2.542765
2.539225
2.537616
2.546628
2.555318
2.559502
2.556605
2.552099
2.549846
2.552421
2.554352
2.558536
2.560789
2.556283
2.548237
2.538260
2.539547
2.545018
2.552099
2.558536
2.562076
2.560789
2.558536
2.559180
2.560467
2.563042
2.565939
2.566904
2.567548
2.570766
2.574628
2.572054
2.564651
2.553708
2.552743
2.559180
2.561755
2.565295
2.563364
2.558858
2.556283
2.556283
2.555961
2.549846
2.543731
2.548881
2.561111
2.573341
2.584284
2.592652
2.599733
2.602629
2.602307
2.595227
2.592652
2.588790
2.584284
2.581709
2.590077
2.600376
2.610997
2.624515
2.633849
2.635458
2.633205
2.630308
2.627412
2.627090
2.625159
2.624837
2.624193
2.625802
2.643504
2.664424
2.677942
2.676655
2.672792
2.669252
2.665068
2.666677
2.676655
2.693713
2.705621
2.710449
2.704334
2.695322
2.688241
2.681804
2.677298
2.675045
2.673436
2.676655
2.676655
2.672149
2.663781
2.654125
2.642217
2.625159
2.604239
2.588790
2.585571
2.580100
2.576238
2.572376
2.576881
2.576881
2.574950
2.570766
2.561755
2.548237
2.542122
2.543087
2.543731
2.543087
2.545984
2.545340
2.557892
2.581387
2.592974
2.588468
2.579456
2.575916
2.571410
2.565295
2.560789
2.559180
2.557570
2.564651
2.572376
2.572054
2.567870
2.560145
2.554030
2.546306
2.543731
2.545018
2.548881
2.553708
2.560467
2.579134
2.601020
2.612285
2.632239
2.662493
2.704977
2.766772
2.847235
2.949261
3.061908
3.179704
3.304904
3.449736
3.595855
3.703674
3.720411
3.614844
3.397596
3.106323
2.794451
2.517661
2.313931
2.202893
2.181329
2.215445
2.273700
2.343219
2.407589
2.453935
2.482580
2.499960
2.511224
2.518305
2.526995
2.531179
2.527639
2.521202
2.523133
2.529570
2.534719
2.534719
2.539547
2.540834
2.541800
2.544375
2.544053
2.539869
2.535685
2.528604
2.520558
2.519270
2.523455
2.528926
2.533110
2.541800
2.547593
2.550812
2.549846
2.545340
2.545662
2.546628
2.546949
2.538260
2.532466
2.539225
2.546628
2.550812
2.555318
2.559180
2.558858
2.554674
2.550168
2.551134
2.555318
2.558536
2.559502
2.560467
2.558858
2.554352
2.552099
2.555318
2.557892
2.561433
2.563686
2.567226
2.577203
2.581065
2.581709
2.582031
2.585893
2.589755
2.594905
2.601342
2.606492
2.612285
2.613250
2.619365
2.622906
2.631596
2.644470
2.662815
2.669574
2.666677
2.666355
2.673758
2.674723
2.668608
2.676655
2.693713
2.713667
2.731691
2.741990
2.752933
2.755829
2.752611
2.753255
2.758726
2.767416
2.776750
2.785118
2.791233
2.790589
2.788980
2.792520
2.801210
2.814406
2.830177
2.842407
2.851740
2.865258
2.872017
2.872017
2.863327
2.851097
2.838223
2.826314
2.822774
2.818912
2.815050
2.813440
2.810222
2.807003
2.797992
2.781255
2.754864
2.722679
2.695322
2.671827
2.650263
2.635458
2.625159
2.616791
2.605204
2.585249
2.558536
2.532466
2.508328
2.487086
2.468740
2.454257
2.445245
2.439774
2.434624
2.427865
2.416279
2.410486
2.401796
2.392140
2.381519
2.371542
2.362208
2.354162
2.354162
2.355771
2.356415
2.355128
2.352231
2.347403
2.340644
2.338070
2.340001
2.336138
2.330667
2.325839
2.323264
2.323264
2.324552
2.325517
2.326483
2.317149
2.307816
2.307494
2.311356
2.314896
2.317471
2.318759
2.322299
2.321977
2.325196
2.322943
2.315540
2.308138
2.306206
2.314575
2.321977
2.327449
2.329058
2.336460
2.345150
2.352553
2.350300
2.344507
2.334207
2.320368
2.305563
2.309425
2.318759
2.330023
2.335173
2.340966
2.351265
2.363817
2.370576
2.373795
2.366714
2.360599
2.356415
2.350943
2.347725
2.343219
2.343541
2.351587
2.357380
2.362530
2.367680
2.371542
2.372829
2.365427
2.353840
2.345794
2.340966
2.344507
2.354484
2.361243
2.369611
2.377335
2.377013
2.362208
2.349334
2.349012
2.358024
2.368001
2.371542
2.375726
2.379588
2.382163
2.379588
2.379266
2.372507
2.365749
2.363496
2.359633
2.363174
2.368001
2.373151
2.376691
2.380875
2.386347
2.382807
2.376370
2.368323
2.360277
2.356415
2.359633
2.371220
2.383128
2.389887
2.388600
2.387634
2.387312
2.388600
2.382807
2.370898
2.365427
2.360921
2.359955
2.370254
2.378944
2.390853
2.395037
2.394071
2.391818
2.385381
2.377657
2.367036
2.361565
2.356415
2.375404
2.397612
2.410486
2.416279
2.416279
2.415313
2.411451
2.405658
2.399865
2.396646
2.394393
2.396646
2.393106
2.396324
2.411129
2.431728
2.450717
2.463269
2.477430
2.489017
2.489017
2.484511
2.477108
2.470993
2.464234
2.457475
2.452004
2.459085
2.474855
2.492879
2.510259
2.524742
2.532144
2.535363
2.535363
2.532788
2.536650
2.544053
2.538903
2.528604
2.515408
2.498672
2.494166
2.496741
2.497707
2.502534
2.505109
2.502534
2.498350
2.484511
2.468418
2.458119
2.447498
2.442349
2.441383
2.434302
2.417566
2.412095
2.412095
2.419819
2.427544
2.432049
2.431728
2.425291
2.421750
2.418210
2.413382
2.411773
2.421750
2.432371
2.440739
2.440096
2.434946
2.429796
2.426256
2.426900
2.426900
2.429153
2.435268
2.439130
2.440739
2.437843
2.429475
2.424647
2.424325
2.429796
2.434946
2.441383
2.457154
2.467453
2.472602
2.474855
2.480327
2.491270
2.502212
2.512512
2.515408
2.524098
2.563364
2.617113
2.684701
2.769669
2.873304
2.983377
3.104070
3.236028
3.375067
3.505737
3.601005
3.616132
3.527301
3.338698
3.072207
2.777071
2.503500
2.293976
2.176501
2.159122
2.210939
2.284321
2.356093
2.419819
2.465200
2.493201
2.511546
2.520236
2.530535
2.542122
2.550812
2.557570
2.560467
2.565617
2.567226
2.560145
2.553386
2.552743
2.555639
2.564329
2.566260
2.561755
2.559180
2.566582
2.569479
2.568192
2.570766
2.573985
2.583640
2.594261
2.605848
2.609066
2.607779
2.605204
2.599411
2.593618
2.586537
2.586537
2.594261
2.601664
2.604560
2.602951
2.603273
2.602951
2.606813
2.615503
2.619687
2.622262
2.628699
2.633527
2.638998
2.639320
2.638033
2.633849
2.630952
2.631596
2.635458
2.638998
2.641573
2.642217
2.641895
2.644792
2.646723
2.652516
2.658309
2.663781
2.667965
2.673436
2.683413
2.690816
2.689850
2.684701
2.677620
2.670218
2.665712
2.676011
2.702081
2.721392
2.728472
2.725254
2.718495
2.723323
2.730082
2.729438
2.727185
2.729760
2.752289
2.780290
2.796704
2.804750
2.810866
2.814728
2.817624
2.821487
2.823740
2.830820
2.840154
2.849487
2.856568
2.862683
2.865580
2.866545
2.865902
2.868798
2.880063
2.895190
2.909029
2.916432
2.917076
2.912248
2.905489
2.904845
2.910317
2.922869
2.927697
2.929306
2.924800
2.918363
2.912248
2.897765
2.878776
2.861396
2.843372
2.822452
2.801210
2.782865
2.761301
2.737806
2.714955
2.692103
2.672792
2.651872
2.627412
2.607457
2.591043
2.583962
2.576238
2.567548
2.557570
2.541156
2.518949
2.497063
2.486764
2.476143
2.461660
2.448786
2.439130
2.430762
2.417888
2.411773
2.412417
2.410164
2.405980
2.404370
2.402761
2.396324
2.386025
2.378944
2.374117
2.372829
2.374117
2.374760
2.374117
2.371864
2.364461
2.356093
2.354806
2.352231
2.348691
2.347081
2.342254
2.334851
2.329701
2.326161
2.327449
2.326805
2.326161
2.328092
2.336138
2.340966
2.341610
2.336782
2.329058
2.325517
2.328414
2.329380
2.321012
2.313931
2.331311
2.355449
2.369933
2.370898
2.363496
2.356737
2.351265
2.340001
2.330989
2.325517
2.326161
2.327770
2.330023
2.332920
2.337748
2.342254
2.347081
2.349978
2.347725
2.346759
2.341932
2.334851
2.330023
2.330023
2.333242
2.336460
2.342897
2.344828
2.341932
2.342575
2.341610
2.339679
2.339035
2.340966
2.342575
2.345150
2.344185
2.343541
2.344507
2.346116
2.344507
2.344185
2.344507
2.342575
2.340966
2.339679
2.339035
2.336460
2.334851
2.333886
2.340001
2.349978
2.358346
2.358990
2.354162
2.346116
2.342254
2.340001
2.336138
2.336782
2.335817
2.336138
2.333564
2.328414
2.334529
2.340966
2.347403
2.348047
2.341610
2.341932
2.353840
2.362852
2.369611
2.363174
2.352231
2.338713
2.328092
2.319724
2.317149
2.324552
2.335817
2.340644
2.351265
2.363817
2.371864
2.370898
2.368645
2.363496
2.358668
2.351587
2.345794
2.339357
2.334851
2.334851
2.335173
2.334851
2.332598
2.340001
2.354162
2.364783
2.369289
2.376048
2.381841
2.379910
2.376048
2.368967
2.358990
2.350622
2.344507
2.343863
2.343863
2.343863
2.343541
2.349012
2.354484
2.355771
2.353196
2.347081
2.341932
2.338391
2.338391
2.344507
2.354162
2.363174
2.365427
2.360921
2.355771
2.351265
2.349012
2.352553
2.363817
2.378944
2.390209
2.384094
2.370254
2.356737
2.352875
2.360921
2.364139
2.369289
2.372829
2.369611
2.366070
2.369289
2.369933
2.365105
2.360599
2.363496
2.373795
2.377979
2.384094
2.385703
2.380875
2.375726
2.368967
2.365427
2.365749
2.365749
2.366070
2.362530
2.359633
2.362852
2.364783
2.364783
2.364783
2.372829
2.383450
2.388922
2.390531
2.389565
2.386025
2.376048
2.365427
2.360921
2.357059
2.357059
2.362208
2.368323
2.375404
2.380554
2.385703
2.386991
2.380875
2.373473
2.365105
2.357702
2.353518
2.357380
2.359633
2.361565
2.359633
2.369611
2.381197
2.377013
2.368645
2.362208
2.354806
2.353840
2.365749
2.371220
2.371864
2.371220
2.371864
2.369611
2.367680
2.366714
2.366714
2.364461
2.361886
2.363817
2.363817
2.363817
2.364783
2.364783
2.361243
2.357702
2.354484
2.351265
2.342575
2.335173
2.333564
2.337426
2.350943
2.363174
2.378623
2.386991
2.384094
2.374760
2.365749
2.363174
2.365105
2.367036
2.363496
2.364461
2.365427
2.361565
2.358668
2.359312
2.364461
2.368001
2.372829
2.372507
2.369933
2.365749
2.364139
2.361565
2.357702
2.361886
2.363817
2.364461
2.374117
2.378301
2.376370
2.376370
2.373473
2.368323
2.363817
2.359955
2.362208
2.364139
2.365105
2.362208
2.358024
2.355449
2.357380
2.374117
2.388278
2.397612
2.402439
2.401474
2.401796
2.401152
2.398577
2.395680
2.394393
2.393749
2.392140
2.394715
2.401474
2.404370
2.406945
2.413060
2.419497
2.422394
2.426900
2.427544
2.426578
2.428831
2.435268
2.440739
2.442670
2.442027
2.438486
2.434946
2.431084
2.434302
2.438165
2.431406
2.421107
2.409520
2.397933
2.386347
2.391818
2.394071
2.382485
2.371864
2.359955
2.349978
2.341288
2.340966
2.346759
2.352553
2.360277
2.361886
2.354484
2.347081
2.335495
2.321333
2.310391
2.312322
2.326805
2.340644
2.352231
2.355128
2.352231
2.345150
2.334207
2.322621
2.314253
2.314253
2.324874
2.335495
2.345472
2.346116
2.339357
2.333564
2.329058
2.324874
2.321655
2.315862
2.313931
2.315218
2.324874
2.330989
2.335173
2.337426
2.347725
2.360599
2.373473
2.392784
2.426578
2.477430
2.543731
2.634814
2.741346
2.855924
2.976618
3.107288
3.236672
3.360262
3.437505
3.410792
3.263063
3.029723
2.747139
2.464556
2.225744
2.071901
2.008174
2.013646
2.052590
2.100867
2.153328
2.195169
2.228319
2.252780
2.265010
2.281424
2.300091
2.309425
2.317793
2.325196
2.333242
2.331311
2.323264
2.311034
2.302022
2.296229
2.294298
2.295264
2.298482
2.300735
2.300413
2.300413
2.301057
2.301379
2.295264
2.300091
2.308459
2.323264
2.339035
2.341288
2.335495
2.322299
2.313931
2.311356
2.314253
2.319724
2.317793
2.320046
2.319724
2.319724
2.320690
2.326161
2.331954
2.339679
2.349012
2.354806
2.353840
2.349656
2.349012
2.348369
2.345794
2.344507
2.345472
2.349656
2.363817
2.372186
2.378301
2.379266
2.379266
2.383128
2.394715
2.403405
2.405336
2.406623
2.408876
2.406945
2.408554
2.406302
2.406945
2.414991
2.424969
2.429475
2.432049
2.436877
2.447176
2.453291
2.460050
2.469384
2.471959
2.471959
2.478718
2.487086
2.485154
2.486764
2.496097
2.507684
2.516052
2.522811
2.527317
2.529570
2.526351
2.538903
2.563364
2.584928
2.600376
2.608423
2.613572
2.617113
2.621297
2.623228
2.623228
2.625159
2.641895
2.659918
2.675045
2.685023
2.685023
2.681160
2.676333
2.679551
2.687276
2.693391
2.698540
2.696609
2.692103
2.693069
2.698540
2.695644
2.690494
2.689529
2.684057
2.534076
2.514121
2.508328
2.506075
2.499960
2.490304
2.472924
2.449107
2.423681
2.401474
2.376370
2.354484
2.340001
2.337104
2.336138
2.328092
2.318437
2.309747
2.300735
2.291080
2.279493
2.267263
2.258251
2.252458
2.255676
2.263401
2.262113
2.255354
2.247952
2.237009
2.231216
2.228641
2.227032
2.227354
2.226388
2.226388
2.221560
2.217376
2.224457
2.237975
2.239906
2.233147
2.227032
2.231538
2.236687
2.237331
2.235400
2.237331
2.235078
2.232825
2.231859
2.227675
2.221238
2.226066
2.236365
2.251492
2.261470
2.264044
2.265975
2.266941
2.267906
2.265332
2.261470
2.260504
2.264044
2.267906
2.274665
2.276275
2.267906
2.263079
2.269838
2.281746
2.285930
2.280780
2.274987
2.272412
2.276275
2.284964
2.293654
2.299126
2.303954
2.306850
2.304275
2.296873
2.288183
2.282390
2.284321
2.288183
2.289470
2.293976
2.304919
2.315218
2.321655
2.328092
2.333564
2.335817
2.331311
2.322621
2.314253
2.300735
2.287861
2.293976
2.313609
2.330989
2.336460
2.337104
2.333564
2.333564
2.336138
2.335173
2.334851
2.336460
2.336460
2.337748
2.341932
2.353840
2.363496
2.369933
2.370254
2.367680
2.360277
2.355128
2.357380
2.356093
2.350622
2.345472
2.343863
2.343541
2.347725
2.353840
2.362530
2.364461
2.362852
2.361886
2.365749
2.366070
2.364139
2.360599
2.357380
2.359312
2.362852
2.371542
2.376691
2.379588
2.379910
2.377013
2.373151
2.369933
2.373473
2.378944
2.382485
2.380554
2.373795
2.370576
2.374760
2.381197
2.386669
2.384094
2.377979
2.377979
2.384416
2.394715
2.399865
2.405336
2.411773
2.408876
2.404049
2.395680
2.387312
2.386025
2.390531
2.393428
2.396968
2.396324
2.391818
2.388278
2.394393
2.403405
2.405658
2.406945
2.406623
2.404692
2.402761
2.400186
2.400830
2.401796
2.405014
2.405980
2.406623
2.409198
2.423681
2.436877
2.440417
2.436233
2.427865
2.417566
2.408876
2.409520
2.418210
2.423038
2.417566
2.423359
2.434624
2.445245
2.459407
2.463269
2.455544
2.442349
2.440096
2.446854
2.453291
2.458763
2.462625
2.467131
2.469706
2.471315
2.466809
2.461981
2.466809
2.469384
2.468096
2.465522
2.461660
2.461016
2.454579
2.453291
2.452970
2.451682
2.453935
2.458763
2.463269
2.467131
2.474212
2.487729
2.483223
2.477752
2.472281
2.471959
2.474212
2.476465
2.477108
2.478718
2.485154
2.496741
2.507362
2.513477
2.515408
2.519914
2.522811
2.526673
2.530535
2.527960
2.517983
2.510259
2.517661
2.526995
2.528926
2.524742
2.536328
2.551134
2.566904
2.576238
2.579456
2.579456
2.575916
2.558858
2.542765
2.548881
2.566904
2.577525
2.584928
2.589434
2.583962
2.573019
2.558214
2.551777
2.547593
2.541156
2.536972
2.531179
2.525386
2.520558
2.512833
2.512833
2.512190
2.501247
2.492235
2.483867
2.474855
2.470028
2.472602
2.482580
2.488695
2.489017
2.489660
2.491913
2.498672
2.504144
2.499960
2.489982
2.485476
2.479683
2.475177
2.474533
2.476786
2.480970
2.489339
2.489660
2.487729
2.488695
2.490304
2.493523
2.498028
2.506718
2.514121
2.508649
2.498350
2.483223
2.472602
2.467453
2.474855
2.488051
2.506718
2.524420
2.532144
2.538581
2.549846
2.581387
2.632239
2.705299
2.797026
2.909351
3.040988
3.185176
3.334514
3.479024
3.598430
3.656041
3.598108
3.405964
3.122737
2.813440
2.542122
2.341610
2.224135
2.186801
2.208364
2.263722
2.320690
2.364461
2.389244
2.394393
2.390209
2.382163
2.377657
2.386991
2.401796
2.425291
2.450395
2.480970
2.503822
2.508971
2.507040
2.506397
2.508006
2.506718
2.504787
2.497385
2.491591
2.488373
2.500925
2.511546
2.513799
2.511868
2.509615
2.506397
2.501247
2.501247
2.517983
2.535363
2.546949
2.552743
2.548237
2.537616
2.519914
2.507684
2.504787
2.511868
2.528926
2.548559
2.571732
2.579456
2.575594
2.567226
2.557570
2.550812
2.548881
2.545662
2.548237
2.564973
2.577847
2.585893
2.582997
2.574307
2.563042
2.562076
2.565617
2.571088
2.572054
2.572054
2.573985
2.581387
2.589755
2.597158
2.602629
2.603917
2.605526
2.599733
2.592652
2.599411
2.604239
2.607779
2.611641
2.616147
2.618722
2.619687
2.618400
2.610997
2.615825
2.637711
2.658309
2.666999
2.668930
2.662171
2.656378
2.651550
2.653481
2.670861
2.696609
2.707552
2.708196
2.711414
2.716886
2.717529
2.710771
2.703368
2.697575
2.694356
2.693069
2.694034
2.696931
2.701759
2.714955
2.730082
2.744243
2.748427
2.743277
2.731691
2.722679
2.715920
2.713345
2.711414
2.715276
2.713989
2.711414
2.708196
2.702081
2.691460
2.679873
2.666677
2.654125
2.642217
2.626124
2.609710
2.601020
2.591365
2.574950
2.561111
2.538581
2.514443
2.491591
2.463269
2.441383
2.429153
2.423359
2.418210
2.411129
2.399543
2.377657
2.351909
2.340001
2.340322
2.338713
2.335495
2.326483
2.312322
2.293976
2.277884
2.268228
2.272412
2.274987
2.274987
2.275953
2.280459
2.292367
2.297838
2.296873
2.293976
2.281746
2.270159
2.261148
2.254389
2.249883
2.255998
2.265332
2.272091
2.280137
2.285930
2.292689
2.299448
2.298804
2.290436
2.285286
2.284964
2.286574
2.284321
2.286574
2.291080
2.302666
2.304597
2.305885
2.310712
2.317471
2.322943
2.324874
2.325839
2.325517
2.323908
2.320046
2.315540
2.314896
2.320690
2.328414
2.330989
2.339035
2.349334
2.355449
2.347725
2.330345
2.315862
2.312643
2.323908
2.337748
2.352875
2.364461
2.363174
2.353196
2.337104
2.318759
2.302344
2.296229
2.292689
2.291723
2.292689
2.293333
2.285286
2.279815
2.281424
2.284643
2.293011
2.300091
2.306850
2.312000
2.317471
2.314253
2.310391
2.303954
2.299448
2.296873
2.297195
2.302666
2.310391
2.313931
2.318437
2.326161
2.328736
2.332276
2.333242
2.330989
2.329380
2.326161
2.325196
2.329058
2.330345
2.326483
2.322943
2.323908
2.330345
2.339357
2.350622
2.357702
2.356415
2.350622
2.344828
2.338713
2.336460
2.348047
2.362208
2.376691
2.391818
2.393749
2.382163
2.379266
2.378944
2.383772
2.385381
2.386347
2.385059
2.381197
2.378944
2.377657
2.375082
2.381519
2.405658
2.424647
2.430762
2.435268
2.434946
2.434302
2.431406
2.423359
2.417888
2.412738
2.409842
2.413704
2.425612
2.439774
2.451682
2.463912
2.474855
2.481292
2.481936
2.478718
2.473890
2.468418
2.461338
2.453935
2.457154
2.471315
2.489017
2.489660
2.481936
2.476465
2.478074
2.480005
2.478718
2.485154
2.488051
2.490626
2.498350
2.508328
2.526995
2.543731
2.555961
2.559502
2.555318
2.547593
2.546949
2.549846
2.558536
2.569157
2.575594
2.572376
2.566260
2.568513
2.570444
2.585893
2.612607
2.635136
2.649619
2.654125
2.651872
2.647044
2.642860
2.636745
2.629343
2.620653
2.616469
2.616469
2.619044
2.619365
2.611319
2.605526
2.606492
2.605848
2.606813
2.602307
2.592974
2.582675
2.572697
2.566582
2.561755
2.559180
2.554996
2.553065
2.548559
2.540834
2.535041
2.543409
2.550812
2.555318
2.561433
2.564651
2.564007
2.551777
2.538581
2.533110
2.528926
2.530535
2.537938
2.543409
2.554674
2.572054
2.582675
2.586859
2.583962
2.578491
2.567870
2.557570
2.557249
2.562720
2.565617
2.569479
2.571732
2.570444
2.563042
2.557249
2.556927
2.564007
2.569801
2.575594
2.586215
2.601342
2.615825
2.640929
2.689529
2.764519
2.861396
2.971468
3.084437
3.204809
3.328720
3.454563
3.581694
3.700456
3.756458
3.688869
3.491254
3.202234
2.882638
2.591686
2.376691
2.261791
2.237331
2.271447
2.325839
2.378944
2.423359
2.454901
2.476143
2.480970
2.481614
2.489339
2.508649
2.529570
2.554030
2.577847
2.597480
2.619687
2.636745
2.635780
2.622262
2.608744
2.594583
2.577203
2.567548
2.564651
2.563686
2.567870
2.577203
2.588790
2.596192
2.600055
2.597158
2.592652
2.589112
2.593296
2.596514
2.597158
2.596192
2.591365
2.595227
2.600698
2.603595
2.611641
2.617434
2.620009
2.615825
2.614216
2.606492
2.597480
2.590077
2.596514
2.604560
2.609388
2.617113
2.623871
2.623550
2.618722
2.613572
2.616147
2.629343
2.634171
2.634492
2.634492
2.636423
2.645435
2.660562
2.670539
2.672149
2.665712
2.658631
2.654769
2.655091
2.656378
2.660562
2.664746
2.666677
2.666034
2.667321
2.675689
2.686632
2.697253
2.707230
2.714633
2.716564
2.717529
2.720426
2.723001
2.725897
2.730725
2.741990
2.752289
2.759048
2.767738
2.771922
2.777393
2.783830
2.798635
2.822452
2.841763
2.851097
2.855281
2.855603
2.859143
2.868798
2.883282
2.892937
2.905489
2.915466
2.917398
2.917719
2.920616
2.929306
2.936708
2.934777
2.923835
2.917398
2.914823
2.910639
2.913214
2.913214
2.909351
2.896156
2.878454
2.861074
2.842407
2.820199
2.802176
2.795095
2.784796
2.769347
2.749714
2.724610
2.698862
2.676333
2.653481
2.636423
2.622906
2.611641
2.596192
2.575594
2.551777
2.531179
2.514121
2.500603
2.487086
2.477108
2.463591
2.448464
2.435590
2.433659
2.438165
2.446533
2.452326
2.451039
2.438486
2.422072
2.408554
2.403405
2.394071
2.384416
2.372507
2.361243
2.370576
2.384738
2.388600
2.389244
2.385381
2.382163
2.376691
2.378301
2.380554
2.385059
2.388922
2.388600
2.384738
2.377979
2.367358
2.363174
2.361886
2.364783
2.378944
2.394393
2.400186
2.396646
2.394393
2.391818
2.389244
2.390531
2.393749
2.397290
2.400186
2.397290
2.396324
2.396646
2.407267
2.413060
2.408876
2.399543
2.397933
2.405980
2.415313
2.421428
2.421750
2.424003
2.424969
2.417888
2.412417
2.408233
2.405980
2.400508
2.398899
2.404370
2.417888
2.435912
2.449107
2.460050
2.465200
2.461016
2.449429
2.447176
2.447498
2.446211
2.445567
2.445245
2.446854
2.453613
2.460372
2.465522
2.465522
2.461338
2.456510
2.454579
2.453291
2.455223
2.452648
2.452648
2.459407
2.456832
2.465844
2.467453
2.469706
2.470993
2.473246
2.474212
2.467453
2.463591
2.460694
2.458763
2.460050
2.463591
2.474855
2.488695
2.492557
2.488695
2.483223
2.475177
2.468418
2.464234
2.464234
2.470993
2.470993
2.475499
2.486442
2.491913
2.492879
2.489660
2.483545
2.474212
2.481292
2.486120
2.485476
2.489339
2.490948
2.492879
2.494810
2.498028
2.496419
2.491913
2.493201
2.498350
2.501891
2.501247
2.501247
2.504144
2.502856
2.507684
2.510581
2.514121
2.515408
2.511546
2.508328
2.512833
2.519270
2.519914
2.513477
2.511868
2.511224
2.517018
2.515086
2.512833
2.511546
2.510581
2.514765
2.522167
2.527317
2.531501
2.534076
2.535041
2.537938
2.541156
2.540834
2.543087
2.541478
2.536972
2.537294
2.539547
2.541478
2.540512
2.536972
2.534076
2.535041
2.540834
2.543731
2.542444
2.541800
2.542444
2.542122
2.547271
2.548559
2.543731
2.538260
2.541478
2.551455
2.562398
2.570766
2.577203
2.578169
2.574950
2.567226
2.554996
2.542765
2.524098
2.524420
2.535685
2.554996
2.583640
2.592974
2.596192
2.593618
2.581387
2.566904
2.557892
2.554996
2.555318
2.562076
2.571732
2.578491
2.583318
2.590399
2.581709
2.569157
2.555961
2.545018
2.541800
2.544053
2.556605
2.573019
2.591365
2.603595
2.614538
2.624837
2.630952
2.630630
2.622906
2.614538
2.607779
2.610676
2.615825
2.624515
2.631918
2.635136
2.632561
2.627734
2.629986
2.642539
2.656056
2.660240
2.656700
2.653160
2.650907
2.649297
2.642217
2.628377
2.625802
2.620653
2.626446
2.632883
2.639642
2.637067
2.629986
2.619687
2.612607
2.606492
2.602951
2.597158
2.586537
2.572697
2.562076
2.553708
2.547915
2.542122
2.540512
2.542122
2.546306
2.549846
2.551455
2.548881
2.544375
2.538581
2.532788
2.535685
2.545340
2.555961
2.561755
2.557249
2.543087
2.529891
2.525386
2.537294
2.554996
2.562720
2.568192
2.564007
2.555318
2.541800
2.529891
2.525386
2.533754
2.540512
2.545662
2.554996
2.559823
2.563686
2.568192
2.580100
2.600376
2.618078
2.637389
2.657022
2.688885
2.730082
2.790911
2.876845
2.976940
3.087656
3.209636
3.342238
3.495760
3.638017
3.731997
3.746158
3.639948
3.418194
3.124668
2.811187
2.528926
2.318115
2.199675
2.166846
2.190019
2.243768
2.307816
2.366714
2.416601
2.461660
2.502212
2.530535
2.551455
2.564651
2.570766
2.576238
2.573663
2.566904
2.557249
2.544375
2.529248
2.513155
2.502212
2.502534
2.512833
2.520236
2.536650
2.555639
2.561111
2.559502
2.557570
2.554352
2.544697
2.539869
2.539869
2.535363
2.535041
2.541156
2.546306
2.546628
2.548881
2.551134
2.552743
2.554030
2.551455
2.556927
2.567548
2.567548
2.559502
2.554030
2.545984
2.551134
2.557570
2.562076
2.559823
2.557892
2.556605
2.556283
2.560467
2.563042
2.564007
2.567548
2.572697
2.575272
2.575272
2.577203
2.579134
2.578491
2.574950
2.574628
2.585249
2.598123
2.612285
2.619687
2.623228
2.622584
2.609066
2.592974
2.589755
2.605848
2.626124
2.645113
2.662171
2.674080
2.680839
2.683413
2.686310
2.685345
2.686310
2.691138
2.697897
2.704012
2.708518
2.711092
2.711414
2.717851
2.733622
2.752289
2.770634
2.794773
2.812797
2.818268
2.819234
2.816659
2.813440
2.816659
2.827602
2.849809
2.865258
2.871051
2.872017
2.877166
2.881029
2.886178
2.890684
2.899374
2.906133
2.907742
2.904524
2.900018
2.900661
2.901949
2.898730
2.893903
2.884569
2.870086
2.847878
2.825027
2.812797
2.806682
2.800888
2.783508
2.762266
2.733622
2.706587
2.686310
2.666355
2.647366
2.630952
2.606170
2.579134
2.558858
2.545340
2.540834
2.532144
2.513799
2.496419
2.485154
2.476465
2.466165
2.455866
2.446854
2.440739
2.438808
2.433659
2.425934
2.416923
2.410486
2.399221
2.384094
2.368967
2.358990
2.356093
2.360599
2.363817
2.370254
2.377979
2.387312
2.389244
2.382163
2.375726
2.368645
2.365427
2.364461
2.358024
2.350622
2.340001
2.339035
2.349334
2.358990
2.368967
2.378623
2.378944
2.374760
2.365427
2.365427
2.368323
2.368645
2.368001
2.364461
2.363174
2.367680
2.378301
2.385059
2.389565
2.390531
2.385703
2.378301
2.377657
2.373473
2.368645
2.371220
2.380875
2.388600
2.391175
2.392140
2.398577
2.408233
2.409198
2.406302
2.400830
2.396002
2.405336
2.407589
2.402117
2.401796
2.408876
2.407911
2.406302
2.409842
2.418210
2.424003
2.427222
2.427865
2.429796
2.432693
2.436233
2.436877
2.433015
2.429796
2.430762
2.426900
2.427865
2.430118
2.430762
2.434624
2.435912
2.433659
2.432049
2.429153
2.430440
2.437199
2.439774
2.440096
2.445889
2.446854
2.448142
2.448786
2.448464
2.443958
2.453613
2.458763
2.460372
2.456832
2.452326
2.448142
2.443958
2.440739
2.440096
2.448786
2.454901
2.455223
2.454579
2.460050
2.460372
2.452648
2.448142
2.461016
2.473246
2.475177
2.473246
2.466487
2.459085
2.449429
2.449751
2.456188
2.467131
2.480327
2.483545
2.480005
2.469384
2.460372
2.462625
2.469384
2.473568
2.479039
2.484833
2.484511
2.478718
2.472602
2.473246
2.478074
2.484833
2.489339
2.492235
2.494488
2.496741
2.499316
2.496097
2.500603
2.502856
2.496741
2.487729
2.482258
2.480005
2.481936
2.495132
2.506075
2.509293
2.508649
2.506397
2.504144
2.501569
2.496741
2.495132
2.498028
2.515086
2.523776
2.524098
2.520880
2.520880
2.531179
2.537938
2.540834
2.539869
2.538903
2.534397
2.530857
2.526673
2.521845
2.513155
2.512833
2.513155
2.515086
2.525386
2.527960
2.526995
2.529570
2.539869
2.551134
2.560789
2.564973
2.559823
2.554352
2.549202
2.545662
2.539869
2.536328
2.533110
2.530535
2.530213
2.533432
2.542444
2.555961
2.559502
2.557570
2.556605
2.559180
2.563364
2.562398
2.557249
2.555639
2.558536
2.560145
2.557249
2.562398
2.564007
2.561111
2.557892
2.548881
2.540512
2.538581
2.542444
2.544375
2.547593
2.557249
2.567226
2.571732
2.573663
2.573019
2.569801
2.565295
2.561111
2.558214
2.563042
2.564651
2.555639
2.545984
2.548881
2.554996
2.562720
2.570766
2.575594
2.585571
2.587502
2.581709
2.578813
2.573341
2.564007
2.554996
2.552421
2.556927
2.558858
2.560789
2.560467
2.560467
2.568835
2.568513
2.564007
2.555961
2.551134
2.554352
2.562720
2.568513
2.570444
2.568835
2.568513
2.564651
2.558214
2.558858
2.562398
2.570766
2.578169
2.581065
2.578169
2.570444
2.569157
2.572376
2.571410
2.573341
2.579134
2.582031
2.578813
2.569157
2.555639
2.546628
2.545340
2.551455
2.562076
2.571088
2.575916
2.576238
2.570766
2.565939
2.559180
2.557249
2.559502
2.568513
2.583640
2.591686
2.588146
2.580744
2.573663
2.571088
2.582031
2.586537
2.582675
2.573663
2.564651
2.563042
2.568513
2.573663
2.573985
2.573341
2.578169
2.580422
2.579778
2.579456
2.577203
2.576238
2.573985
2.574628
2.576560
2.574950
2.572054
2.572376
2.570766
2.569801
2.570766
2.569479
2.570123
2.570766
2.571410
2.569801
2.564329
2.558214
2.555961
2.560145
2.563364
2.565617
2.568192
2.565939
2.575916
2.578491
2.577525
2.574307
2.577847
2.575594
2.570123
2.562398
2.555318
2.552099
2.545340
2.545662
2.548237
2.558536
2.568513
2.578813
2.585249
2.590721
2.593618
2.590399
2.588146
2.590077
2.593618
2.599089
2.605848
2.612607
2.613250
2.611641
2.609710
2.607457
2.610997
2.614860
2.613894
2.610997
2.609066
2.606492
2.599411
2.597802
2.606813
2.617113
2.622262
2.617756
2.609066
2.598123
2.589112
2.592330
2.596836
2.595227
2.591043
2.584284
2.574628
2.561433
2.542122
2.531179
2.536328
2.548559
2.550168
2.550490
2.549202
2.551134
2.547915
2.541156
2.538903
2.535685
2.533110
2.529570
2.526029
2.519270
2.516052
2.517661
2.525064
2.533110
2.535363
2.534076
2.528282
2.526351
2.522489
2.519592
2.524420
2.531179
2.527317
2.520236
2.517018
2.515730
2.516052
2.516374
2.518627
2.518305
2.518627
2.521845
2.522167
2.519270
2.514765
2.515086
2.524742
2.538260
2.557570
2.574307
2.587824
2.607779
2.639964
2.689850
2.753255
2.833717
2.928019
3.034229
3.147198
3.275294
3.421413
3.559808
3.659903
3.679214
3.577832
3.367342
3.076391
2.767094
2.498350
2.297517
2.180364
2.140776
2.163949
2.216411
2.287861
2.351909
2.405014
2.443958
2.471959
2.492557
2.504787
2.513155
2.515086
2.512512
2.507040
2.501247
2.500603
2.505431
2.507684
2.505753
2.500603
2.494488
2.495132
2.501569
2.502534
2.500281
2.498994
2.499960
2.500925
2.498028
2.492879
2.492879
2.494488
2.495776
2.498994
2.502534
2.507684
2.507040
2.497063
2.504787
2.516696
2.520558
2.522167
2.523133
2.530535
2.537616
2.541478
2.536007
2.527317
2.518305
2.509293
2.504787
2.507362
2.511224
2.514121
2.518949
2.522167
2.523133
2.530535
2.539869
2.554674
2.560789
2.559502
2.555961
2.551455
2.544697
2.543409
2.546306
2.550168
2.554674
2.557892
2.560145
2.563042
2.566260
2.565939
2.564973
2.562076
2.563686
2.570444
2.582675
2.599411
2.610676
2.621940
2.627412
2.629665
2.629986
2.631918
2.639320
2.644792
2.650263
2.651550
2.654447
2.657665
2.657987
2.677942
2.701115
2.718173
2.733944
2.747461
2.751324
2.754542
2.766129
2.781255
2.795095
2.803141
2.805394
2.804429
2.807969
2.812153
2.817303
2.825349
2.835004
2.848522
2.863005
2.870408
2.871051
2.866545
2.859143
2.860752
2.866867
2.869764
2.868155
2.858499
2.844016
2.832108
2.817303
2.796061
2.776750
2.765807
2.756151
2.741990
2.727185
2.713024
2.692103
2.667321
2.640286
2.615825
2.600055
2.587181
2.570766
2.549524
2.531179
2.510902
2.489982
2.466809
2.450073
2.449429
2.442670
2.432371
2.417566
2.401152
2.389565
2.380232
2.378301
2.384738
2.396646
2.398577
2.390531
2.373795
2.355128
2.340644
2.332920
2.330667
2.331633
2.328736
2.325196
2.322299
2.322943
2.320368
2.316828
2.309747
2.306206
2.303310
2.300413
2.304275
2.309747
2.313931
2.319402
2.326161
2.331311
2.329701
2.324552
2.319402
2.316828
2.313287
2.313609
2.317793
2.321655
2.325196
2.323908
2.322299
2.321977
2.322299
2.326805
2.339035
2.351265
2.354806
2.356737
2.352553
2.352875
2.355128
2.357702
2.356737
2.351909
2.344828
2.343219
2.344828
2.344185
2.348369
2.351909
2.365427
2.377013
2.383128
2.383450
2.379588
2.371542
2.362852
2.358668
2.361886
2.372186
2.374117
2.377979
2.383772
2.386669
2.384094
2.373795
2.369289
2.379266
2.385059
2.390209
2.390209
2.393106
2.395680
2.395037
2.395680
2.394071
2.394393
2.395037
2.394071
2.391175
2.389565
2.398255
2.399865
2.403405
2.407267
2.418210
2.427865
2.424003
2.414348
2.408876
2.407267
2.405658
2.404370
2.410164
2.415313
2.416601
2.415957
2.414348
2.408876
2.404370
2.402117
2.402761
2.410486
2.421107
2.430762
2.435268
2.433015
2.426900
2.418854
2.414670
2.411773
2.408876
2.407911
2.411773
2.422716
2.435590
2.446211
2.449107
2.448142
2.443636
2.437521
2.431084
2.433981
2.439774
2.439774
2.441061
2.441705
2.441383
2.443958
2.444602
2.437521
2.430440
2.427222
2.427544
2.433337
2.439452
2.443314
2.446211
2.447820
2.445245
2.441705
2.442349
2.442992
2.441705
2.443314
2.441705
2.443314
2.447498
2.445245
2.446533
2.453935
2.461338
2.462947
2.469062
2.481936
2.489660
2.490948
2.486442
2.482902
2.478718
2.476786
2.472602
2.471637
2.471315
2.472602
2.471959
2.473890
2.473890
2.476786
2.482580
2.485798
2.485798
2.481936
2.483867
2.485476
2.487086
2.488695
2.489982
2.487407
2.479683
2.478396
2.481936
2.485798
2.485154
2.483545
2.486442
2.486764
2.481292
2.477108
2.482902
2.492557
2.498672
2.502534
2.501891
2.499638
2.505431
2.507040
2.507040
2.514443
2.518627
2.516374
2.510581
2.509615
2.509615
2.506075
2.509293
2.512833
2.514765
2.518949
2.525064
2.528604
2.529248
2.528282
2.526029
2.522167
2.522811
2.525707
2.529891
2.531501
2.528604
2.521845
2.514765
2.511546
2.503500
2.498672
2.504787
2.525707
2.540512
2.554352
2.562076
2.557249
2.547915
2.544053
2.536650
2.526673
2.519270
2.515086
2.516052
2.516052
2.516052
2.515086
2.521523
2.531823
2.537938
2.539225
2.535041
2.526029
2.520236
2.517661
2.517661
2.522167
2.522811
2.529248
2.533754
2.533754
2.533432
2.536007
2.538581
2.536972
2.531501
2.528604
2.531179
2.544375
2.551777
2.554996
2.552421
2.546306
2.534719
2.525064
2.517018
2.519270
2.532788
2.542122
2.545340
2.543731
2.542122
2.541478
2.544697
2.549202
2.551455
2.548881
2.540512
2.531823
2.524742
2.524420
2.532144
2.536007
2.535685
2.541156
2.540834
2.533754
2.532466
2.536650
2.545340
2.555961
2.571088
2.582353
2.585571
2.582997
2.573341
2.566260
2.565295
2.568513
2.569157
2.569157
2.575594
2.583640
2.585893
2.586215
2.589755
2.596836
2.600376
2.606813
2.613572
2.616791
2.610997
2.603595
2.599411
2.595871
2.587824
2.577847
2.570444
2.565939
2.565617
2.565617
2.564007
2.564651
2.560789
2.552743
2.543409
2.543731
2.545018
2.545018
2.547271
2.546306
2.543409
2.539869
2.533754
2.525386
2.511868
2.493523
2.488051
2.498994
2.511868
2.518305
2.519270
2.517018
2.514121
2.519270
2.525707
2.525386
2.524098
2.518305
2.508006
2.498672
2.495776
2.500281
2.504465
2.504787
2.506397
2.505431
2.504144
2.511224
2.515730
2.519592
2.517018
2.507362
2.498350
2.493201
2.496419
2.518627
2.540191
2.552099
2.559180
2.576560
2.605204
2.646401
2.709161
2.794451
2.899374
3.015883
3.140117
3.271753
3.404033
3.531163
3.617419
3.626109
3.521186
3.302329
3.017171
2.721713
2.470349
2.292689
2.195812
2.171030
2.197422
2.246664
2.307816
2.365105
2.408876
2.436555
2.456188
2.473890
2.480005
2.484189
2.483223
2.488373
2.494488
2.499316
2.497385
2.489982
2.484189
2.484833
2.487729
2.486120
2.484511
2.485476
2.487729
2.486764
2.486764
2.484511
2.489339
2.497707
2.503500
2.503822
2.498028
2.488695
2.482580
2.480327
2.482258
2.484833
2.484189
2.490626
2.495776
2.493523
2.486764
2.480970
2.481292
2.492235
2.497707
2.497385
2.492879
2.493844
2.494166
2.500281
2.506397
2.510259
2.519914
2.523455
2.520880
2.513155
2.505109
2.504144
2.508328
2.512512
2.516374
2.514765
2.511224
2.508971
2.509615
2.515730
2.528282
2.545984
2.554352
2.559180
2.567548
2.574950
2.580100
2.579778
2.576238
2.574307
2.573985
2.574628
2.579134
2.585249
2.590721
2.600055
2.612285
2.620975
2.627734
2.635136
2.642217
2.648976
2.651872
2.654769
2.663459
2.671505
2.678264
2.680195
2.685023
2.695644
2.703690
2.712702
2.728150
2.750036
2.763554
2.767416
2.769991
2.781255
2.796061
2.801210
2.803785
2.806682
2.809256
2.813762
2.826636
2.838866
2.848200
2.847878
2.846913
2.850453
2.848844
2.847556
2.844982
2.844982
2.842729
2.834682
2.820199
2.807325
2.793164
2.774497
2.749714
2.725254
2.704655
2.693069
2.686310
2.675045
2.656700
2.634171
2.604560
2.576560
2.555639
2.533754
2.517018
2.505109
2.496419
2.487086
2.478074
2.461016
2.437199
2.414991
2.394715
2.381197
2.377979
2.378944
2.378944
2.376370
2.371864
2.365427
2.361886
2.352553
2.336782
2.326483
2.315218
2.309747
2.310712
2.311356
2.310391
2.308138
2.307816
2.312000
2.314575
2.319402
2.321977
2.318759
2.311678
2.303954
2.300413
2.297517
2.300091
2.306528
2.317471
2.330345
2.334529
2.337104
2.333242
2.322299
2.312965
2.311034
2.313609
2.311034
2.307494
2.314253
2.324552
2.326483
2.326161
2.328414
2.324552
2.321333
2.317471
2.312965
2.311034
2.313287
2.321333
2.332920
2.340644
2.346759
2.357059
2.366392
2.364783
2.364461
2.359633
2.354484
2.355771
2.361886
2.365749
2.364461
2.367358
2.377335
2.387956
2.386991
2.386025
2.383450
2.381197
2.377657
2.371864
2.373151
2.377979
2.382807
2.388600
2.394393
2.395680
2.396968
2.396968
2.395680
2.394393
2.397933
2.403727
2.411129
2.418532
2.420463
2.413704
2.402117
2.396324
2.395680
2.398899
2.416279
2.440739
2.455223
2.453613
2.442349
2.429796
2.415635
2.403727
2.396002
2.392784
2.393428
2.400508
2.410486
2.420463
2.425612
2.426900
2.422716
2.417244
2.413704
2.414026
2.423359
2.435590
2.439130
2.441061
2.444602
2.449107
2.447820
2.439774
2.434946
2.435590
2.437843
2.440417
2.441061
2.438165
2.433659
2.429153
2.425934
2.424003
2.423038
2.427222
2.437199
2.444923
2.458119
2.468096
2.472924
2.472924
2.464234
2.454257
2.449429
2.449751
2.453613
2.459728
2.466809
2.470349
2.468740
2.468096
2.469706
2.469062
2.469384
2.472281
2.467453
2.453613
2.445245
2.457154
2.473890
2.481614
2.483545
2.480005
2.483545
2.488051
2.486120
2.484511
2.484189
2.480649
2.475499
2.471959
2.472924
2.474855
2.474212
2.476143
2.478718
2.479683
2.477108
2.478074
2.485154
2.493844
2.499638
2.505431
2.510259
2.510902
2.504144
2.500925
2.495776
2.485476
2.479361
2.480649
2.489660
2.498672
2.504465
2.501247
2.497707
2.503500
2.511868
2.514765
2.511224
2.513477
2.510581
2.498994
2.492557
2.497707
2.503500
2.508971
2.515730
2.518305
2.517339
2.511224
2.498350
2.496097
2.507684
2.514443
2.514765
2.517339
2.514765
2.507040
2.496419
2.493523
2.490626
2.487086
2.484511
2.491591
2.499638
2.506075
2.514121
2.527960
2.538260
2.540191
2.536972
2.528604
2.518627
2.506718
2.499316
2.501891
2.504144
2.507040
2.515408
2.523776
2.532144
2.544053
2.552099
2.555961
2.562398
2.569157
2.571732
2.571088
2.565295
2.561755
2.560789
2.562398
2.564651
2.571088
2.571088
2.563042
2.559823
2.560467
2.572376
2.582997
2.592974
2.594261
2.590399
2.585571
2.590399
2.597158
2.597802
2.596836
2.592652
2.587824
2.578491
2.565295
2.557249
2.551134
2.544053
2.539869
2.537938
2.534397
2.526351
2.519592
2.512190
2.505431
2.503822
2.520236
2.530857
2.531179
2.531823
2.529891
2.524098
2.516374
2.509293
2.504144
2.504787
2.509293
2.507040
2.502534
2.500281
2.502534
2.503822
2.504787
2.507362
2.511224
2.514121
2.519270
2.523133
2.526351
2.522811
2.515408
2.514443
2.515086
2.517339
2.516696
2.511546
2.513477
2.517661
2.513799
2.508006
2.501247
2.501569
2.513799
2.525064
2.535685
2.544375
2.548881
2.575594
2.622584
2.692425
2.780934
2.884247
3.001078
3.132393
3.266604
3.402424
3.535347
3.640270
3.672777
3.581694
3.365089
3.068023
2.762910
2.491591
2.304275
2.209652
2.191950
2.222526
2.274022
2.321333
2.356093
2.375726
2.387312
2.394715
2.399221
2.413704
2.431084
2.449429
2.468096
2.482580
2.492557
2.501569
2.504144
2.500603
2.503500
2.502856
2.499316
2.493844
2.491270
2.489982
2.492235
2.495776
2.496419
2.496097
2.491270
2.488051
2.489017
2.494810
2.509293
2.516696
2.516696
2.515086
2.518949
2.522811
2.522811
2.517661
2.514121
2.511868
2.508649
2.503178
2.496097
2.510902
2.526673
2.530857
2.530857
2.537616
2.541800
2.539869
2.534397
2.527317
2.523776
2.521845
2.527960
2.538260
2.544375
2.544053
2.544697
2.549524
2.560467
2.573019
2.574628
2.575916
2.573019
2.564329
2.558858
2.561433
2.564007
2.571410
2.576560
2.573341
2.570444
2.575916
2.586215
2.596514
2.604560
2.609066
2.613894
2.617434
2.622584
2.623871
2.621297
2.616791
2.616469
2.623871
2.638676
2.649297
2.655734
2.662493
2.672471
2.694678
2.712380
2.722357
2.728150
2.739415
2.749714
2.750680
2.756151
2.766450
2.768060
2.769991
2.775140
2.780290
2.783830
2.788336
2.795095
2.803141
2.818590
2.826958
2.830498
2.827280
2.826314
2.830177
2.832751
2.832429
2.833395
2.819234
2.807969
2.795417
2.780612
2.762588
2.745852
2.728794
2.710771
2.689850
2.669896
2.648332
2.628055
2.606492
2.586215
2.566904
2.547915
2.529891
2.519270
2.506397
2.491913
2.471315
2.445245
2.422716
2.415635
2.410807
2.403405
2.393106
2.384416
2.374117
2.364461
2.358668
2.348369
2.338713
2.337104
2.341288
2.336782
2.325196
2.311356
2.299448
2.291080
2.288827
2.289470
2.288827
2.287539
2.287217
2.289470
2.289149
2.288827
2.285608
2.283999
2.290114
2.296229
2.289470
2.281424
2.279815
2.272734
2.265010
2.259217
2.253423
2.252780
2.256964
2.263401
2.269516
2.277884
2.285608
2.283677
2.284643
2.286574
2.292045
2.300735
2.302988
2.299770
2.294620
2.290114
2.289149
2.284964
2.285930
2.289149
2.293333
2.295907
2.299448
2.297517
2.294620
2.296551
2.299448
2.297838
2.295585
2.288183
2.283355
2.293654
2.315218
2.331954
2.335817
2.331311
2.321333
2.311034
2.299770
2.291401
2.287861
2.292689
2.302022
2.315540
2.324874
2.331633
2.340644
2.348047
2.346759
2.344185
2.342254
2.340966
2.345472
2.343219
2.339357
2.335817
2.332276
2.333564
2.336460
2.336460
2.332276
2.320690
2.319724
2.323264
2.322299
2.328736
2.344828
2.351265
2.347081
2.341288
2.332276
2.320368
2.317793
2.318437
2.320690
2.326483
2.342897
2.359312
2.370254
2.365749
2.350943
2.340966
2.332276
2.325839
2.323264
2.320690
2.318437
2.324230
2.336460
2.351909
2.361886
2.361565
2.356737
2.352553
2.346759
2.339679
2.332276
2.321333
2.315862
2.324230
2.334851
2.344185
2.355771
2.363174
2.370576
2.373151
2.368323
2.359955
2.351265
2.347081
2.348047
2.348369
2.347725
2.348691
2.347081
2.343541
2.342575
2.340001
2.342575
2.350300
2.357702
2.364139
2.367036
2.368323
2.364139
2.364139
2.365427
2.365427
2.362530
2.359633
2.353518
2.347403
2.343541
2.349012
2.360277
2.357059
2.358024
2.362852
2.368645
2.376048
2.384416
2.392462
2.392784
2.386347
2.380232
2.373473
2.362530
2.354806
2.357702
2.371220
2.388278
2.404049
2.418854
2.425612
2.423681
2.414670
2.414670
2.418854
2.425934
2.432371
2.436555
2.439452
2.442027
2.444602
2.449107
2.448464
2.457154
2.469706
2.475821
2.477108
2.472924
2.470671
2.463591
2.458119
2.452004
2.445245
2.440417
2.440096
2.442027
2.443314
2.451682
2.456510
2.451682
2.438808
2.423681
2.409198
2.394715
2.388600
2.391175
2.402439
2.416279
2.429153
2.438165
2.438486
2.433337
2.423359
2.409198
2.395359
2.385703
2.383128
2.386025
2.392462
2.396968
2.397612
2.396002
2.396002
2.393749
2.390531
2.388600
2.397290
2.411129
2.420141
2.423681
2.421750
2.413704
2.412417
2.410486
2.408876
2.404692
2.405658
2.402761
2.397290
2.394393
2.393749
2.396968
2.405014
2.423038
2.434946
2.442027
2.446533
2.443636
2.447498
2.465200
2.501247
2.553708
2.621297
2.699828
2.796061
2.911282
3.042275
3.188394
3.338698
3.466472
3.554015
3.543394
3.397918
3.142048
2.835326
2.541800
2.297517
2.134339
2.066107
2.074797
2.126293
2.191306
2.247952
2.290436
2.309103
2.311356
2.309103
2.306850
2.306528
2.319080
2.340644
2.365749
2.385381
2.398255
2.405336
2.411129
2.412417
2.418854
2.424325
2.420141
2.416279
2.414991
2.408876
2.405336
2.401474
2.397612
2.400830
2.413382
2.427865
2.437199
2.441061
2.433337
2.420463
2.412738
2.418210
2.425612
2.433981
2.443636
2.449429
2.448786
2.441061
2.427222
2.419819
2.419497
2.423359
2.431728
2.436233
2.439452
2.442670
2.444602
2.447820
2.453291
2.455223
2.450073
2.445567
2.444923
2.452326
2.460372
2.467775
2.468740
2.467131
2.461660
2.455544
2.449429
2.455223
2.469062
2.476143
2.483545
2.501891
2.509615
2.507684
2.499638
2.495454
2.492235
2.487086
2.494166
2.507684
2.515730
2.517983
2.526673
2.531179
2.532466
2.537616
2.544697
2.558858
2.570444
2.578169
2.580100
2.584606
2.590077
2.593618
2.594261
2.596514
2.606170
2.616147
2.628377
2.649297
2.668608
2.682126
2.690172
2.692425
2.697575
2.714311
2.730082
2.741346
2.750036
2.750680
2.750358
2.748105
2.750036
2.765485
2.775462
2.773531
2.765485
2.761301
2.763554
2.755829
2.745208
2.737484
2.727829
2.724932
2.725897
2.719782
2.717851
2.716886
2.703368
2.686310
2.659275
2.623550
2.590721
2.564973
2.542444
2.525707
2.513799
2.500281
2.483223
2.464234
2.442349
2.419819
2.403727
2.387956
2.380554
2.377979
2.382485
2.383772
2.379588
2.371864
2.354162
2.334529
2.313931
2.291401
2.277240
2.277240
2.279493
2.279493
2.279815
2.286896
2.294942
2.297838
2.293333
2.281424
2.272734
2.255998
2.239584
2.226388
2.223491
2.231216
2.247952
2.265332
2.273378
2.273378
2.260182
2.250205
2.249239
2.251814
2.255676
2.265975
2.269516
2.255998
2.239262
2.227354
2.231216
2.243446
2.254389
2.260182
2.261791
2.260504
2.260182
2.261148
2.260504
2.255354
2.248274
2.250527
2.252458
2.254389
2.266297
2.282390
2.298160
2.310712
2.305885
2.285608
2.271447
2.269516
2.276918
2.284964
2.295264
2.302022
2.311678
2.317793
2.320368
2.323586
2.321333
2.322621
2.325196
2.321655
2.315218
2.317793
2.319080
2.317793
2.311356
2.306850
2.312000
2.319402
2.328092
2.330023
2.326161
2.323264
2.323908
2.327449
2.331954
2.333564
2.334207
2.336460
2.337748
2.340966
2.343863
2.340966
2.335495
2.326161
2.319402
2.323586
2.337104
2.349334
2.367358
2.374117
2.363174
2.340001
2.339035
2.352231
2.362852
2.377013
2.386347
2.387634
2.376370
2.357380
2.343863
2.340001
2.342575
2.354162
2.374438
2.390209
2.394071
2.389887
2.385381
2.386025
2.388278
2.386991
2.379588
2.368001
2.358346
2.356415
2.360921
2.368001
2.382163
2.398577
2.408233
2.405980
2.408233
2.397612
2.381841
2.373473
2.372829
2.385381
2.395680
2.403083
2.403405
2.405980
2.409520
2.414670
2.420785
2.426256
2.432049
2.433015
2.437199
2.446533
2.456510
2.470671
2.470993
2.460050
2.450395
2.452648
2.456832
2.457475
2.457475
2.464878
2.480327
2.498028
2.520558
2.545984
2.555639
2.550490
2.538260
2.528604
2.521523
2.512512
2.505753
2.507362
2.512512
2.517018
2.517339
2.516696
2.508649
2.502856
2.503822
2.502534
2.490304
2.468740
2.449107
2.432693
2.429475
2.428509
2.429796
2.429153
2.426256
2.420141
2.420785
2.420141
2.421428
2.428509
2.431084
2.426900
2.427222
2.439130
2.449429
2.451360
2.452004
2.449751
2.444280
2.429796
2.415957
2.409842
2.411451
2.426900
2.442027
2.446533
2.440739
2.428187
2.417888
2.408554
2.409842
2.423681
2.431084
2.426578
2.428831
2.438486
2.451039
2.464556
2.469384
2.475499
2.486442
2.505109
2.541800
2.599089
2.676976
2.779003
2.882316
2.989814
3.107610
3.237315
3.369917
3.482886
3.538888
3.482564
3.307800
3.047103
2.742634
2.453291
2.234434
2.106660
2.071579
2.106982
2.172961
2.245055
2.303954
2.334851
2.338391
2.327127
2.318437
2.322299
2.338713
2.363496
2.398577
2.430762
2.446533
2.459407
2.467131
2.472281
2.478074
2.476465
2.461016
2.441061
2.428187
2.421428
2.438808
2.458441
2.472602
2.477752
2.472602
2.468418
2.473890
2.487086
2.500925
2.509293
2.501891
2.487086
2.467453
2.453613
2.449107
2.456510
2.471637
2.494810
2.514765
2.525064
2.521202
2.510581
2.499316
2.498994
2.502856
2.511224
2.511546
2.506075
2.501569
2.511224
2.528926
2.542122
2.546306
2.539869
2.533110
2.534719
2.532788
2.542122
2.557570
2.566582
2.567870
2.562398
2.547593
2.536650
2.525707
2.516052
2.515730
2.533754
2.559823
2.584284
2.594905
2.586859
2.581065
2.587824
2.593939
2.605204
2.606492
2.601342
2.603273
2.614860
2.633849
2.649297
2.653481
2.666034
2.672471
2.677298
2.689529
2.695000
2.695966
2.695000
2.696609
2.705943
2.712702
2.719139
2.725254
2.733300
2.749714
2.765485
2.777393
2.787049
2.803463
2.822452
2.830498
2.831142
2.826636
2.818590
2.812475
2.809578
2.812475
2.819234
2.824383
2.824061
2.824705
2.823096
2.814406
2.805716
2.808291
2.818912
2.815693
2.804107
2.790267
2.775462
2.751645
2.727185
2.708518
2.700150
2.679229
2.649297
2.632239
2.626768
2.617434
2.595549
2.565939
2.537938
2.517018
2.501247
2.489017
2.475821
2.466809
2.459085
2.450395
2.438165
2.423038
2.414670
2.405658
2.395359
2.389887
2.382485
2.373795
2.365749
2.363817
2.363174
2.367036
2.374438
2.373795
2.361243
2.346116
2.333886
2.328414
2.324552
2.320690
2.320046
2.322621
2.324874
2.321977
2.330989
2.336460
2.338070
2.332920
2.323264
2.311678
2.307172
2.310712
2.334207
2.340001
2.336138
2.333564
2.341932
2.353518
2.351265
2.346759
2.341610
2.341610
2.343219
2.344828
2.342897
2.339357
2.334851
2.338391
2.345150
2.359633
2.370576
2.373151
2.374760
2.373151
2.364461
2.351587
2.342254
2.341610
2.346759
2.353518
2.355771
2.358346
2.360277
2.368645
2.377013
2.382807
2.394071
2.404370
2.404370
2.396646
2.390209
2.382163
2.374438
2.357702
2.350943
2.367036
2.390853
2.409520
2.415957
2.424647
2.431084
2.426578
2.418854
2.408554
2.392784
2.380554
2.379910
2.388278
2.395359
2.403405
2.406302
2.404370
2.396324
2.392462
2.394393
2.398899
2.404692
2.412417
2.424647
2.428831
2.424969
2.416601
2.407267
2.409842
2.421107
2.429475
2.429796
2.427544
2.420785
2.417888
2.421428
2.429153
2.444602
2.454579
2.454257
2.452970
2.455866
2.468418
2.479361
2.479683
2.480970
2.478074
2.474212
2.478396
2.492235
2.506075
2.523776
2.540191
2.545018
2.542765
2.544375
2.544375
2.544053
2.546628
2.553065
2.554996
2.555318
2.551134
2.541800
2.526351
2.511546
2.502534
2.497385
2.491591
2.488373
2.488695
2.495454
2.499960
2.499316
2.490304
2.475177
2.462303
2.453291
2.443636
2.437843
2.439774
2.440739
2.446533
2.453291
2.458441
2.461981
2.464234
2.462625
2.451039
2.441061
2.437843
2.441705
2.443636
2.451682
2.464234
2.471637
2.471637
2.468096
2.463591
2.461338
2.462303
2.460372
2.457154
2.452648
2.458119
2.464234
2.475177
2.487729
2.499316
2.515408
2.541800
2.584284
2.639964
2.703368
2.769991
2.838866
2.922547
3.026504
3.143335
3.274328
3.415298
3.529232
3.574613
3.501875
3.311019
3.038735
2.733300
2.448464
2.237009
2.124362
2.100867
2.134983
2.194525
2.252780
2.300735
2.334207
2.349656
2.352553
2.363496
2.379588
2.392462
2.415635
2.433981
2.446533
2.459407
2.468740
2.481936
2.498994
2.504465
2.500603
2.488051
2.474533
2.472602
2.472924
2.479361
2.486764
2.503500
2.517018
2.521845
2.520880
2.509615
2.500281
2.496419
2.502534
2.517983
2.526351
2.521202
2.521202
2.526995
2.531823
2.536972
2.540834
2.543731
2.545340
2.545018
2.539547
2.528926
2.526673
2.532144
2.541478
2.554030
2.565617
2.565617
2.556927
2.549202
2.548237
2.548881
2.553386
2.560467
2.566260
2.565295
2.566582
2.570123
2.573985
2.581387
2.587502
2.593939
2.593939
2.589434
2.584606
2.582997
2.583640
2.580744
2.581065
2.596514
2.621297
2.637389
2.643504
2.639964
2.633849
2.635780
2.645113
2.651229
2.653160
2.655734
2.667643
2.682770
2.693391
2.703368
2.717529
2.728150
2.730403
2.729438
2.732013
2.732013
2.730403
2.730403
2.731047
2.743599
2.768060
2.788336
2.806038
2.814406
2.819234
2.821487
2.831786
2.844016
2.853671
2.859787
2.864936
2.866867
2.863327
2.856890
2.849809
2.850775
2.852706
2.849809
2.844660
2.848522
2.854315
2.842085
2.820199
2.799923
2.779646
2.759692
2.744887
2.733944
2.720426
2.705299
2.689850
2.667643
2.647044
2.630952
2.616791
2.599733
2.577525
2.555318
2.538581
2.524098
2.509293
2.492879
2.478396
2.459728
2.443958
2.437521
2.428187
2.411451
2.397290
2.396646
2.393749
2.388278
2.383772
2.379266
2.378623
2.371542
2.367036
2.361886
2.364139
2.371542
2.375404
2.372186
2.360921
2.351909
2.342575
2.334529
2.330989
2.329380
2.337748
2.340644
2.331954
2.332598
2.339679
2.344507
2.349978
2.352553
2.346438
2.336138
2.326805
2.327770
2.335817
2.340966
2.342575
2.342254
2.342897
2.344185
2.345150
2.342575
2.336138
2.323908
2.315540
2.317149
2.331311
2.344828
2.362852
2.375082
2.375082
2.377335
2.375082
2.367358
2.360599
2.350622
2.345472
2.351587
2.360921
2.368967
2.375082
2.373151
2.369611
2.370254
2.373795
2.374438
2.375726
2.376048
2.377657
2.385059
2.392462
2.395359
2.390853
2.381197
2.371864
2.376691
2.386347
2.397612
2.400830
2.396968
2.399221
2.396002
2.392784
2.393106
2.390531
2.391496
2.396968
2.399221
2.399543
2.397612
2.391496
2.389244
2.393749
2.405336
2.418532
2.423359
2.424969
2.428187
2.425291
2.424969
2.425934
2.429796
2.433659
2.433015
2.429475
2.431406
2.438808
2.442670
2.442027
2.434624
2.422072
2.423681
2.435268
2.439130
2.433659
2.423681
2.406623
2.396646
2.396002
2.404370
2.416923
2.431084
2.446211
2.458441
2.460372
2.457797
2.444923
2.433659
2.420785
2.415957
2.414991
2.432049
2.453613
2.470993
2.478074
2.473246
2.463591
2.451360
2.451039
2.450717
2.447820
2.446533
2.447498
2.456832
2.464878
2.472924
2.468740
2.462947
2.460050
2.455223
2.461660
2.467131
2.473890
2.481292
2.481936
2.475177
2.466809
2.464556
2.469062
2.472924
2.478074
2.481292
2.483867
2.482258
2.480327
2.478718
2.477752
2.476465
2.482258
2.497063
2.510581
2.512512
2.506075
2.497385
2.490626
2.486120
2.481614
2.479361
2.477430
2.479039
2.485798
2.487407
2.487729
2.497063
2.510581
2.517983
2.512190
2.504787
2.499316
2.493201
2.489660
2.493844
2.496097
2.499638
2.512512
2.516374
2.507684
2.502212
2.508971
2.513477
2.516374
2.517339
2.519270
2.517018
2.510581
2.508006
2.507362
2.506075
2.512190
2.526029
2.529570
2.524098
2.522489
2.521523
2.515730
2.508971
2.504465
2.506718
2.515086
2.525707
2.528604
2.523133
2.521523
2.525064
2.530857
2.531501
2.527317
2.522811
2.519270
2.512190
2.511546
2.522167
2.525064
2.522811
2.519270
2.512512
2.518949
2.522489
2.524420
2.528604
2.526995
2.521845
2.517983
2.513155
2.506718
2.504787
2.507684
2.513155
2.519914
2.526351
2.537294
2.540834
2.540191
2.531501
2.514765
2.502856
2.510902
2.531179
2.543087
2.539547
2.536650
2.537294
2.526351
2.517661
2.518949
2.531179
2.541478
2.550490
2.558214
2.557892
2.550490
2.539547
2.526351
2.514443
2.503178
2.504787
2.520236
2.534076
2.548881
2.561111
2.568513
2.573019
2.567548
2.558214
2.550490
2.542444
2.536650
2.533754
2.530857
2.526351
2.523776
2.526029
2.532144
2.538903
2.538903
2.540191
2.538581
2.538260
2.539225
2.537616
2.536650
2.535685
2.547271
2.563686
2.566260
2.558858
2.552099
2.545662
2.540834
2.539225
2.542122
2.542444
2.542765
2.544697
2.544697
2.540834
2.545018
2.547593
2.543087
2.534397
2.534719
2.547271
2.561433
2.566904
2.563364
2.560467
2.558858
2.555961
2.552421
2.554352
2.557249
2.557249
2.555961
2.553065
2.547593
2.547593
2.555318
2.569801
2.579134
2.578491
2.583318
2.598445
2.612929
2.619365
2.614538
2.607135
2.592330
2.585249
2.590399
2.598445
2.606170
2.610032
2.614860
2.613572
2.608101
2.601986
2.609388
2.611319
2.604560
2.596514
2.592652
2.597802
2.601020
2.603917
2.601342
2.591365
2.573019
2.553386
2.551777
2.563364
2.571732
2.577525
2.581387
2.590399
2.588790
2.579456
2.564651
2.559180
2.553065
2.548881
2.545340
2.544053
2.544697
2.545662
2.545018
2.540512
2.536328
2.527639
2.528926
2.531501
2.542122
2.562076
2.561433
2.552421
2.545018
2.536328
2.529570
2.531179
2.540512
2.545662
2.547271
2.547915
2.546949
2.543087
2.536650
2.531179
2.530213
2.531501
2.526351
2.518627
2.515408
2.526029
2.546949
2.581709
2.617756
2.647688
2.671827
2.704334
2.751967
2.811187
2.887787
2.984020
3.083472
3.192578
3.322283
3.468403
3.611626
3.714295
3.730710
3.626431
3.406930
3.099886
2.763232
2.456188
2.236687
2.116637
2.090568
2.120822
2.181329
2.255354
2.325839
2.390853
2.438486
2.472924
2.496741
2.506075
2.500925
2.489660
2.477752
2.474212
2.478396
2.486442
2.492235
2.493523
2.504465
2.513155
2.514765
2.515086
2.505431
2.489982
2.480005
2.481936
2.482902
2.492235
2.504144
2.513155
2.516052
2.517983
2.518305
2.517661
2.515408
2.516696
2.517661
2.516374
2.513477
2.508328
2.501569
2.497707
2.493523
2.504144
2.525707
2.538581
2.544053
2.540834
2.532788
2.528926
2.532144
2.536007
2.536650
2.531501
2.521523
2.517983
2.522811
2.526673
2.529248
2.538260
2.547593
2.559502
2.566582
2.569479
2.566904
2.561111
2.556605
2.553065
2.550812
2.555318
2.569479
2.576560
2.574950
2.578491
2.585571
2.592974
2.592008
2.592652
2.600055
2.605526
2.605526
2.604882
2.603595
2.605526
2.614860
2.635136
2.657987
2.675367
2.687276
2.692425
2.690494
2.687276
2.685345
2.693069
2.690816
2.691460
2.716564
2.739415
2.756151
2.765485
2.773853
2.780612
2.788336
2.795739
2.802498
2.806682
2.814084
2.822774
2.832751
2.838545
2.839832
2.838866
2.838223
2.834039
2.829211
2.828567
2.836935
2.851419
2.872017
2.878454
2.878776
2.874914
2.860108
2.838545
2.816981
2.801532
2.795417
2.789302
2.779646
2.768703
2.752611
2.726863
2.697253
2.684057
2.688885
2.683092
2.668930
2.646401
2.620653
2.593939
2.561433
2.535041
2.514121
2.501891
2.494810
2.492557
2.485476
2.480970
2.473568
2.459728
2.442349
2.424647
2.411129
2.397612
2.388600
2.386347
2.384094
2.379910
2.375082
2.373795
2.375726
2.375404
2.372507
2.369933
2.366392
2.359955
2.349978
2.341288
2.345472
2.352875
2.354806
2.349656
2.339357
2.334529
2.336782
2.342897
2.347403
2.358668
2.364461
2.366392
2.363496
2.362852
2.359633
2.358346
2.355449
2.348047
2.343863
2.342575
2.340322
2.347403
2.354806
2.357702
2.352875
2.357380
2.365427
2.370254
2.378944
2.386669
2.386347
2.383450
2.378944
2.376370
2.372829
2.370254
2.369289
2.368645
2.369933
2.367680
2.365749
2.375404
2.382163
2.388278
2.400508
2.411451
2.412738
2.408554
2.398577
2.391496
2.386991
2.387634
2.393749
2.399543
2.403083
2.408876
2.411451
2.414991
2.418854
2.418854
2.419819
2.423038
2.425934
2.426256
2.421428
2.420785
2.418210
2.413060
2.411773
2.412738
2.418854
2.426256
2.429796
2.425934
2.420141
2.413704
2.411773
2.415635
2.429796
2.439130
2.440739
2.438808
2.441383
2.447820
2.454901
2.455223
2.452970
2.450717
2.449751
2.448464
2.445889
2.439774
2.437521
2.442027
2.442992
2.435590
2.428509
2.430440
2.440096
2.450073
2.457797
2.464234
2.468418
2.466809
2.454579
2.437843
2.433015
2.441061
2.458441
2.470349
2.476465
2.480970
2.487086
2.489339
2.483545
2.467453
2.453613
2.445567
2.445567
2.449429
2.445889
2.439774
2.442992
2.454579
2.463912
2.474533
2.480005
2.482258
2.488373
2.490304
2.484511
2.478074
2.475177
2.471315
2.463591
2.462303
2.470993
2.482580
2.494488
2.504144
2.504144
2.499638
2.497063
2.486442
2.471959
2.469384
2.477752
2.485798
2.492557
2.492879
2.490304
2.488051
2.496097
2.502856
2.510259
2.503822
2.486764
2.476465
2.473568
2.483545
2.498028
2.512190
2.524420
2.526029
2.514765
2.496097
2.484511
2.481614
2.478074
2.480970
2.482902
2.485476
2.499960
2.513799
2.519270
2.518305
2.508328
2.498028
2.494166
2.495776
2.498028
2.498672
2.496097
2.490948
2.490304
2.495776
2.503822
2.506397
2.512512
2.513155
2.508971
2.502534
2.502856
2.506075
2.502212
2.500925
2.501891
2.505109
2.509937
2.504144
2.473890
2.470671
2.473568
2.479361
2.475821
2.480327
2.483223
2.479361
2.470349
2.464234
2.471315
2.479039
2.479683
2.478718
2.481614
2.482902
2.479683
2.476465
2.477430
2.476465
2.476465
2.475499
2.467131
2.460050
2.472281
2.483545
2.484833
2.481614
2.483223
2.481614
2.472281
2.468740
2.475499
2.483223
2.493201
2.498350
2.491270
2.481936
2.478074
2.469062
2.462947
2.451682
2.443636
2.433659
2.435912
2.436877
2.436233
2.433015
2.421428
2.400830
2.374438
2.352553
2.323264
2.287539
2.255033
2.237331
2.231538
2.229928
2.231538
2.231538
2.224779
2.215767
2.210617
2.205790
2.195812
2.179720
2.162984
2.146891
2.128224
2.117281
2.111166
2.110522
2.106338
2.094430
2.074475
2.052268
2.038750
2.030704
2.026842
2.016542
2.001737
1.983714
1.963759
1.953460
1.949598
1.949920
1.952495
1.960541
1.974380
1.983070
1.985001
1.981461
1.979852
1.975668
1.975668
1.980174
1.978886
1.973415
1.973093
1.971162
1.971484
1.969874
1.983392
2.002703
2.014290
2.021370
2.017830
2.008496
2.004312
2.013324
2.025232
2.033600
2.033279
2.025554
2.015577
2.013646
2.024589
2.035853
2.048084
2.053555
2.053233
2.046796
2.036497
2.031991
2.041325
2.053877
2.063532
2.070291
2.078659
2.084131
2.087993
2.088315
2.088637
2.078016
2.069326
2.078337
2.088315
2.101511
2.115672
2.123718
2.135305
2.139489
2.141742
2.143673
2.143673
2.142707
2.145282
2.152363
2.160087
2.173605
2.193238
2.205146
2.210296
2.210617
2.211261
2.212227
2.212548
2.209008
2.212870
2.219307
2.232181
2.255033
2.277562
2.301379
2.320690
2.336782
2.357059
2.393428
2.450395
2.526029
2.617113
2.721070
2.831786
2.951192
3.084115
3.225729
3.366055
3.475805
3.512496
3.431712
3.240212
2.965997
2.653803
2.356415
2.127580
1.990151
1.944770
1.964081
2.021370
2.088637
2.163949
2.232181
2.286574
2.327127
2.366714
2.402761
2.427865
2.441383
2.441705
2.433015
2.424003
2.412417
2.401152
2.400508
2.399221
2.402117
2.414026
2.428831
2.442027
2.454579
2.456832
2.458119
2.455866
2.451360
2.452004
2.460050
2.472281
2.478396
2.481292
2.484189
2.494166
2.504465
2.508971
2.508006
2.505753
2.502212
2.501569
2.505753
2.517983
2.532144
2.546628
2.553065
2.556605
2.555318
2.552421
2.554030
2.557570
2.565617
2.579778
2.594905
2.609388
2.616469
2.616469
2.610032
2.598767
2.596514
2.606170
2.620331
2.639964
2.645113
2.646079
2.648010
2.655734
2.663781
2.669896
2.674402
2.678908
2.682448
2.686310
2.684057
2.685666
2.692103
2.700793
2.708839
2.718817
2.725576
2.738450
2.747783
2.748427
2.745530
2.758726
2.777393
2.790267
2.801210
2.807969
2.814084
2.825349
2.830177
2.833717
2.836292
2.844016
2.858499
2.873304
2.894868
2.915788
2.935743
2.947651
2.952479
2.964388
2.972112
2.978871
2.979193
2.980158
2.985951
2.996251
3.013952
3.032941
3.048712
3.051609
3.044206
3.040022
3.036160
3.030688
3.028757
3.026504
3.030688
3.036482
3.038413
3.038413
3.036804
3.033585
3.018780
2.999147
2.979193
2.965031
2.947008
2.928662
2.914501
2.894868
2.865258
2.839832
2.832429
2.827280
2.810866
2.792520
2.771600
2.748749
2.729760
2.710127
2.689207
2.672792
2.655734
2.645113
2.636745
2.623550
2.614538
2.608744
2.594905
2.585893
2.585571
2.590077
2.585249
2.567870
2.547271
2.536972
2.532466
2.532466
2.534719
2.534719
2.532144
2.538581
2.539225
2.531823
2.520236
2.509293
2.499316
2.495132
2.492557
2.497707
2.507362
2.518949
2.523455
2.516374
2.505753
2.499316
2.491270
2.491591
2.501891
2.508006
2.504787
2.498028
2.497385
2.508006
2.516052
2.523133
2.524742
2.522811
2.514443
2.508971
2.503822
2.499316
2.504787
2.516696
2.524420
2.518949
2.520558
2.526351
2.526351
2.524098
2.521202
2.517018
2.513155
2.514121
2.515086
2.518627
2.526995
2.535041
2.536650
2.533754
2.525064
2.511224
2.507684
2.514443
2.519592
2.528282
2.532466
2.531823
2.532466
2.529570
2.523133
2.514121
2.507684
2.504465
2.506718
2.512512
2.519914
2.527960
2.533110
2.535685
2.535041
2.538260
2.540512
2.541156
2.537616
2.531501
2.528282
2.526029
2.527960
2.532144
2.534397
2.539225
2.543087
2.544697
2.548881
2.549202
2.544053
2.542122
2.543409
2.540191
2.536328
2.540191
2.541478
2.539547
2.538260
2.534397
2.532144
2.530535
2.531501
2.536972
2.532788
2.535041
2.539225
2.543409
2.547915
2.548559
2.546306
2.539225
2.530535
2.522489
2.523133
2.527639
2.526995
2.526351
2.534719
2.541800
2.536650
2.528604
2.523776
2.521523
2.519592
2.521845
2.526029
2.527960
2.532788
2.536007
2.536650
2.531501
2.528926
2.533110
2.531501
2.533754
2.532466
2.532466
2.532144
2.537294
2.538260
2.537938
2.531179
2.526995
2.540191
2.550168
2.554996
2.555639
2.551134
2.548559
2.545018
2.544053
2.546628
2.546949
2.546306
2.540512
2.532144
2.523455
2.522811
2.534719
2.549524
2.560145
2.564973
2.561111
2.557249
2.558214
2.554352
2.548559
2.535041
2.524098
2.520558
2.518627
2.517661
2.525707
2.541156
2.556605
2.567548
2.566904
2.559502
2.548881
2.539547
2.535041
2.531179
2.529248
2.531501
2.533754
2.535685
2.533754
2.540512
2.548559
2.548237
2.551455
2.552099
2.549846
2.540512
2.535685
2.531823
2.523776
2.523776
2.525064
2.522811
2.517983
2.514443
2.508971
2.510581
2.523455
2.536007
2.546628
2.556605
2.560145
2.558536
2.551455
2.543087
2.536007
2.538903
2.544053
2.546306
2.537294
2.527960
2.527639
2.528926
2.530857
2.531501
2.532788
2.532466
2.529248
2.526029
2.520880
2.521845
2.528604
2.537938
2.537294
2.538260
2.544697
2.545340
2.538260
2.527317
2.518305
2.514121
2.518949
2.530857
2.538260
2.535041
2.526673
2.524742
2.531501
2.540512
2.546949
2.540512
2.526995
2.519914
2.522489
2.527639
2.534397
2.537294
2.534076
2.525064
2.524420
2.528604
2.532466
2.529891
2.534397
2.543731
2.547593
2.546949
2.544375
2.541800
2.550490
2.565617
2.572697
2.577525
2.578813
2.573019
2.562720
2.559180
2.572054
2.584928
2.584928
2.579778
2.579456
2.580744
2.578169
2.577847
2.577203
2.585249
2.592330
2.596192
2.599089
2.596514
2.587502
2.579778
2.568192
2.564007
2.556283
2.543409
2.533754
2.527960
2.524420
2.528926
2.545018
2.556605
2.555639
2.544697
2.534719
2.529570
2.526029
2.522489
2.520558
2.523455
2.519592
2.518949
2.526029
2.519592
2.506718
2.496419
2.488695
2.488051
2.494166
2.501569
2.509615
2.515408
2.515408
2.510902
2.513799
2.519270
2.518949
2.515408
2.512833
2.514121
2.510902
2.505431
2.499316
2.502534
2.511224
2.518627
2.524420
2.527317
2.524098
2.518305
2.516696
2.523133
2.533754
2.535363
2.541156
2.560467
2.594261
2.646079
2.716564
2.798957
2.892937
2.998825
3.110829
3.227338
3.356078
3.489001
3.613235
3.682754
3.639626
3.466794
3.215751
2.928019
2.634492
2.385381
2.214158
2.133052
2.131443
2.178754
2.242159
2.309425
2.363174
2.396002
2.417566
2.436877
2.461338
2.483545
2.505431
2.522167
2.523133
2.516374
2.503822
2.493201
2.477108
2.458441
2.448464
2.460372
2.486442
2.503822
2.506397
2.497063
2.487407
2.473890
2.462303
2.458441
2.459085
2.455223
2.452970
2.458441
2.467131
2.476143
2.484511
2.493523
2.498028
2.498994
2.497385
2.492557
2.484833
2.478074
2.479683
2.487086
2.495454
2.503500
2.513477
2.518305
2.513155
2.508971
2.509293
2.514443
2.517339
2.522489
2.521202
2.509293
2.498672
2.489982
2.496097
2.505753
2.512512
2.525707
2.535685
2.540512
2.541156
2.534076
2.524742
2.521202
2.528282
2.538903
2.544375
2.549524
2.550168
2.543409
2.544375
2.552743
2.561755
2.568192
2.569157
2.574307
2.575916
2.582353
2.591043
2.599089
2.599733
2.598445
2.605526
2.625481
2.642539
2.660884
2.676333
2.682770
2.687919
2.695966
2.699828
2.706908
2.714633
2.728472
2.741990
2.752611
2.759370
2.764197
2.765485
2.767738
2.774497
2.782221
2.793486
2.809256
2.827924
2.842729
2.848200
2.847556
2.844982
2.848844
2.866224
2.883282
2.881029
2.868477
2.855281
2.842085
2.833073
2.826314
2.825992
2.823096
2.817946
2.809578
2.796382
2.771278
2.750680
2.735231
2.712058
2.688241
2.670539
2.654447
2.635136
2.622906
2.608744
2.590721
2.571410
2.548559
2.523133
2.498672
2.477108
2.461016
2.453613
2.454579
2.446854
2.433337
2.420785
2.410807
2.395037
2.378623
2.368323
2.361886
2.357702
2.349012
2.337426
2.329701
2.328092
2.331954
2.342897
2.353518
2.358024
2.343863
2.322621
2.309425
2.298482
2.293654
2.295264
2.301057
2.304597
2.311678
2.317471
2.324874
2.327770
2.317471
2.301701
2.291401
2.289149
2.294620
2.308781
2.318115
2.325196
2.337104
2.336782
2.325517
2.308781
2.299126
2.296551
2.301057
2.307816
2.314896
2.321977
2.328414
2.329701
2.332276
2.333564
2.327127
2.316506
2.314253
2.318115
2.321977
2.324230
2.328414
2.333242
2.342575
2.346438
2.346438
2.352875
2.357059
2.356737
2.353196
2.344507
2.333886
2.329380
2.326805
2.328092
2.330667
2.335173
2.344185
2.353518
2.359633
2.363174
2.364461
2.369289
2.369289
2.365105
2.368645
2.363817
2.359633
2.368001
2.381841
2.383772
2.374438
2.362852
2.353840
2.347403
2.343863
2.353518
2.373151
2.390853
2.402117
2.403727
2.399221
2.394071
2.390531
2.384416
2.377013
2.377013
2.382163
2.393428
2.401796
2.405658
2.406302
2.397933
2.397612
2.400508
2.396324
2.391175
2.388278
2.390209
2.392784
2.404049
2.418532
2.425612
2.433015
2.432693
2.425934
2.417244
2.411451
2.414991
2.418210
2.416923
2.417244
2.407589
2.403083
2.410807
2.420463
2.428187
2.433015
2.432693
2.427865
2.424969
2.426578
2.429153
2.427544
2.432049
2.432371
2.430440
2.428509
2.448142
2.451039
2.444280
2.438808
2.433659
2.429153
2.430440
2.438486
2.447176
2.452648
2.453935
2.457154
2.455544
2.454257
2.449751
2.443636
2.450073
2.463912
2.475499
2.480005
2.480327
2.476786
2.470671
2.465200
2.459728
2.457475
2.447820
2.448142
2.458441
2.463591
2.463269
2.461016
2.463269
2.466165
2.468418
2.472602
2.477430
2.477752
2.473568
2.470993
2.474212
2.477752
2.477752
2.476786
2.473246
2.469706
2.470993
2.475821
2.476786
2.480649
2.488051
2.486442
2.481292
2.475499
2.477430
2.476143
2.471637
2.477752
2.492235
2.503822
2.507040
2.512190
2.512190
2.503500
2.495776
2.491270
2.483867
2.475499
2.471637
2.473568
2.476143
2.488695
2.501569
2.508649
2.512190
2.507684
2.501891
2.499638
2.497063
2.505109
2.513155
2.508649
2.505431
2.506397
2.502212
2.492557
2.484511
2.488695
2.491270
2.496419
2.506075
2.513155
2.519270
2.520880
2.520880
2.512512
2.506718
2.501247
2.499316
2.502856
2.508971
2.511868
2.512833
2.516052
2.516696
2.514443
2.511868
2.514121
2.520236
2.525064
2.529570
2.532466
2.528282
2.522167
2.513155
2.507362
2.504144
2.503178
2.510581
2.519270
2.519270
2.513799
2.516052
2.522489
2.529570
2.529570
2.533432
2.533432
2.534076
2.536650
2.547915
2.554030
2.559180
2.566260
2.567226
2.562076
2.554996
2.554352
2.560467
2.570123
2.582997
2.594261
2.592974
2.584606
2.576881
2.573663
2.571088
2.573663
2.580422
2.585249
2.585893
2.580100
2.574628
2.575594
2.581065
2.591365
2.596192
2.590721
2.585571
2.576560
2.563686
2.549524
2.539869
2.536650
2.539869
2.545984
2.553065
2.552743
2.550812
2.548237
2.537938
2.526351
2.520558
2.517018
2.521202
2.523776
2.523133
2.519914
2.503500
2.486442
2.481614
2.482580
2.497385
2.516696
2.522489
2.525386
2.525064
2.519592
2.511224
2.505109
2.498672
2.492879
2.492235
2.503178
2.512190
2.511224
2.512190
2.515086
2.514443
2.509293
2.506718
2.503500
2.502534
2.498994
2.494810
2.488373
2.486120
2.489982
2.495776
2.507362
2.519592
2.537294
2.564007
2.590077
2.625159
2.678264
2.751967
2.837257
2.934777
3.045815
3.164578
3.300076
3.446195
3.582981
3.669880
3.654432
3.508634
3.257270
2.949582
2.641895
2.386991
2.215767
2.144960
2.146891
2.184869
2.237009
2.292689
2.333564
2.358668
2.387312
2.418210
2.452648
2.479683
2.494488
2.505431
2.509615
2.510259
2.500925
2.480005
2.453935
2.437843
2.440417
2.451360
2.462625
2.471637
2.476143
2.478074
2.473890
2.470993
2.467453
2.466487
2.467131
2.465200
2.459407
2.459728
2.469062
2.478718
2.485154
2.489660
2.490626
2.489017
2.485476
2.478718
2.468096
2.462947
2.471637
2.483223
2.490948
2.490948
2.488695
2.482902
2.479683
2.475821
2.478074
2.484189
2.489982
2.490948
2.486764
2.483223
2.488695
2.490304
2.498350
2.509615
2.516052
2.517339
2.512512
2.511868
2.507040
2.500925
2.490948
2.481292
2.481292
2.496741
2.521845
2.543087
2.556283
2.561433
2.562076
2.562398
2.562720
2.561111
2.552743
2.545340
2.541478
2.546949
2.562076
2.580100
2.597802
2.610032
2.617113
2.616469
2.615503
2.614538
2.613572
2.615825
2.622906
2.637711
2.656378
2.680517
2.703690
2.721713
2.724610
2.722679
2.723645
2.725254
2.728150
2.732656
2.741990
2.758404
2.775140
2.793808
2.807969
2.814084
2.816981
2.820843
2.822452
2.823740
2.829855
2.837901
2.842729
2.846269
2.843694
2.838545
2.831142
2.820199
2.805716
2.786405
2.766772
2.753255
2.744887
2.746174
2.749714
2.744243
2.739093
2.725897
2.699828
2.663459
2.625802
2.594261
2.568835
2.547915
2.538260
2.526029
2.504465
2.488373
2.474855
2.460694
2.437843
2.415635
2.401796
2.394071
2.382485
2.365427
2.346759
2.349012
2.349334
2.348047
2.342575
2.337426
2.335817
2.331311
2.324874
2.314575
2.305563
2.301057
2.295264
2.290436
2.284321
2.279815
2.279493
2.278527
2.276596
2.281424
2.290758
2.287861
2.277884
2.264688
2.254067
2.245377
2.245055
2.256320
2.265332
2.276918
2.284321
2.289149
2.290436
2.286896
2.280459
2.291401
2.302022
2.297838
2.285608
2.270159
2.255354
2.243446
2.237653
2.240871
2.256320
2.276918
2.292689
2.299448
2.302344
2.310391
2.317793
2.321977
2.321012
2.315862
2.307816
2.296551
2.286252
2.277240
2.278206
2.287861
2.298804
2.306528
2.311678
2.318115
2.324552
2.326805
2.322943
2.319402
2.319080
2.314253
2.313287
2.318115
2.326483
2.330667
2.324552
2.315862
2.309425
2.315540
2.324230
2.337104
2.344185
2.350943
2.353196
2.348047
2.343219
2.339035
2.330989
2.324552
2.318115
2.316506
2.322621
2.332276
2.343863
2.351909
2.362852
2.365749
2.362852
2.351265
2.344507
2.349656
2.351265
2.349012
2.345150
2.340322
2.338713
2.341932
2.345150
2.345150
2.350622
2.356093
2.357702
2.358668
2.360599
2.363817
2.361565
2.356093
2.351909
2.353840
2.355771
2.353518
2.350300
2.357380
2.360277
2.360599
2.360921
2.370254
2.376691
2.373151
2.368967
2.371864
2.374438
2.374760
2.371864
2.365105
2.353840
2.354484
2.361243
2.371864
2.379266
2.381841
2.377979
2.374117
2.372507
2.373795
2.379266
2.378944
2.382807
2.386025
2.384738
2.379588
2.373795
2.368001
2.370576
2.375726
2.379588
2.383772
2.386347
2.388278
2.382807
2.370898
2.371864
2.384738
2.399543
2.405980
2.405336
2.398577
2.390531
2.393749
2.403083
2.409198
2.411129
2.407589
2.398255
2.391818
2.383450
2.386025
2.400186
2.417566
2.424325
2.423038
2.417888
2.416279
2.414026
2.413060
2.413704
2.418210
2.423359
2.426578
2.426256
2.426900
2.422072
2.413382
2.404692
2.402761
2.411451
2.421428
2.424325
2.424325
2.424969
2.424325
2.425291
2.424969
2.422394
2.419819
2.419497
2.418532
2.412095
2.409842
2.409198
2.407911
2.409842
2.423681
2.430440
2.431084
2.428187
2.426578
2.428509
2.423359
2.419175
2.420141
2.422716
2.423038
2.426900
2.425291
2.418532
2.415635
2.418210
2.424325
2.428187
2.436555
2.448142
2.457797
2.460372
2.463269
2.457475
2.446211
2.439774
2.438165
2.443958
2.443314
2.445245
2.449107
2.463269
2.475177
2.483545
2.488373
2.488373
2.481936
2.473890
2.468740
2.464878
2.461981
2.461338
2.459728
2.463912
2.463591
2.460694
2.460694
2.460694
2.467453
2.479039
2.489982
2.493523
2.489982
2.484511
2.483223
2.489982
2.499638
2.506718
2.508328
2.506397
2.508971
2.510259
2.506718
2.506718
2.519270
2.532466
2.542122
2.546628
2.548559
2.543731
2.538260
2.534719
2.543409
2.555639
2.568192
2.582353
2.582031
2.572376
2.564651
2.559180
2.549524
2.545340
2.547593
2.558214
2.564007
2.564007
2.563042
2.553708
2.537294
2.516052
2.491591
2.479039
2.482258
2.488373
2.497385
2.510581
2.528282
2.533432
2.527960
2.519270
2.514121
2.513799
2.519592
2.520880
2.511546
2.499316
2.490304
2.482580
2.477108
2.480970
2.486442
2.489660
2.493523
2.497385
2.498672
2.497707
2.494810
2.494488
2.494810
2.491591
2.488695
2.490304
2.494810
2.497063
2.496741
2.491270
2.494810
2.499638
2.505109
2.513477
2.519270
2.526995
2.530535
2.540191
2.554352
2.563042
2.575272
2.595871
2.637711
2.693713
2.767738
2.863971
2.982411
3.124990
3.275615
3.424953
3.564958
3.669880
3.694341
3.594889
3.380538
3.095058
2.788658
2.516052
2.320368
2.208364
2.172961
2.191950
2.245055
2.312322
2.368645
2.403405
2.426256
2.434302
2.438808
2.439452
2.445245
2.452648
2.464234
2.481292
2.492557
2.497385
2.498350
2.490304
2.487086
2.482902
2.481936
2.482258
2.478718
2.475499
2.480649
2.486120
2.496419
2.507684
2.507684
2.506397
2.500281
2.489660
2.482902
2.474212
2.467131
2.467131
2.468418
2.469062
2.473890
2.482902
2.492557
2.497063
2.496097
2.498350
2.505109
2.505753
2.503500
2.503178
2.500925
2.498350
2.496419
2.489339
2.489339
2.501891
2.514443
2.524420
2.535363
2.543731
2.548237
2.545018
2.534076
2.522489
2.518627
2.517339
2.521202
2.526029
2.527639
2.534076
2.538260
2.538903
2.541478
2.544697
2.545340
2.547915
2.558214
2.569801
2.585571
2.598123
2.607457
2.611963
2.612929
2.609710
2.605526
2.600698
2.601664
2.608101
2.612607
2.614860
2.619365
2.636102
2.662171
2.678908
2.684701
2.688241
2.691138
2.694034
2.695322
2.698862
2.707230
2.722357
2.736518
2.748105
2.757761
2.759692
2.755508
2.754864
2.767094
2.788336
2.806038
2.823418
2.831786
2.833395
2.834039
2.837579
2.840798
2.841441
2.845947
2.849487
2.849809
2.850131
2.850775
2.853671
2.846591
2.833395
2.818268
2.811187
2.798635
2.778359
2.766772
2.753898
2.736840
2.717851
2.697575
2.680195
2.666677
2.654447
2.638676
2.621940
2.603273
2.579134
2.552099
2.526995
2.501891
2.479361
2.456832
2.436555
2.420785
2.415313
2.414348
2.420141
2.420785
2.413060
2.395680
2.377979
2.363817
2.356415
2.354484
2.345150
2.333564
2.333564
2.331633
2.327449
2.322299
2.321012
2.323908
2.322621
2.312643
2.307816
2.305885
2.311356
2.316828
2.319724
2.320368
2.321655
2.314253
2.303632
2.293654
2.287861
2.288183
2.293976
2.298804
2.301701
2.307494
2.315540
2.322943
2.324874
2.321333
2.316184
2.311356
2.307816
2.311678
2.318115
2.323908
2.326161
2.324874
2.326805
2.325196
2.325517
2.323264
2.323264
2.321012
2.323908
2.326483
2.326805
2.328092
2.330345
2.328414
2.323908
2.321012
2.327127
2.334207
2.345472
2.353840
2.363817
2.366714
2.360599
2.355771
2.355449
2.349656
2.349656
2.351587
2.354806
2.353840
2.346116
2.343219
2.353196
2.366070
2.378301
2.387312
2.391175
2.389887
2.381197
2.369611
2.362852
2.366392
2.369289
2.377657
2.384738
2.388278
2.386025
2.381197
2.376691
2.374117
2.380232
2.383450
2.380554
2.373795
2.365427
2.359955
2.358024
